Data from 1015water_Reflection__24__16-53-42-430.txt Node

Date: Wed Oct 15 16:53:42 AST 2025
User: lin
Spectrometer: SR600411
Trigger mode: 0
Integration Time (sec): 5.819800E-2
Scans to average: 5
Nonlinearity correction enabled: true
Boxcar width: 0
Storing dark spectrum: false
XAxis mode: Wavelengths
Number of Pixels in Spectrum: 2048
>>>>>Begin Spectral Data<<<<<
187.982	76.18065
188.456	64.93241
188.93	66.39197
189.403	61.34099
189.877	58.84851
190.351	61.21064
190.825	63.42802
191.298	75.7791
191.772	67.35359
192.246	67.73253
192.719	73.92557
193.193	57.13299
193.666	74.99375
194.139	56.86423
194.613	55.82909
195.086	65.27902
195.559	62.48438
196.033	57.61582
196.506	70.50846
196.979	64.26725
197.452	68.84934
197.925	61.67845
198.398	66.73242
198.871	66.74588
199.344	64.36046
199.816	58.98079
200.289	53.73079
200.762	65.03406
201.235	58.69257
201.707	73.98252
202.18	66.18115
202.652	71.62623
203.125	65.90124
203.597	68.93727
204.07	81.53458
204.542	84.94151
205.014	82.6624
205.486	55.25384
205.959	40.39014
206.431	53.28977
206.903	83.32903
207.375	55.80554
207.847	50.83867
208.319	80.74037
208.791	74.55996
209.263	122.7892
209.734	60.16388
210.206	84.99696
210.678	59.99523
211.15	76.91987
211.621	85.99761
212.093	54.02615
212.564	82.75534
213.036	60.39673
213.507	85.57437
213.979	73.87546
214.45	95.3477
214.921	53.23054
215.392	60.41211
215.864	94.87066
216.335	85.45183
216.806	85.33147
217.277	72.2172
217.748	70.15613
218.219	71.13487
218.69	55.83662
219.161	56.51725
219.631	74.43107
220.102	54.34329
220.573	74.31872
221.043	66.13609
221.514	39.32163
221.985	120.00334
222.455	58.41838
222.926	87.05692
223.396	67.5879
223.866	68.02751
224.337	68.86341
224.807	59.01053
225.277	62.21803
225.747	42.54863
226.217	58.76644
226.687	61.23423
227.157	56.90458
227.627	60.28766
228.097	83.55766
228.567	75.21705
229.037	79.46066
229.507	68.21969
229.977	49.64325
230.446	91.60105
230.916	69.4399
231.386	86.5957
231.855	75.67162
232.325	110.93904
232.794	74.99583
233.263	69.995
233.733	53.72803
234.202	78.56815
234.671	86.36106
235.14	115.19262
235.61	69.836
236.079	94.7359
236.548	43.27705
237.017	80.18534
237.486	102.0004
237.955	125.00273
238.424	81.50248
238.892	16.04721
239.361	64.21521
239.83	58.6165
240.299	55.09723
240.767	106.75782
241.236	66.13608
241.704	70.88284
242.173	44.86796
242.641	86.72308
243.109	69.33017
243.578	60.98625
244.046	87.77586
244.514	63.27535
244.982	76.84803
245.451	97.11481
245.919	63.80471
246.387	68.02751
246.855	75.4678
247.323	79.99714
247.791	90.59631
248.258	76.82637
248.726	46.71529
249.194	107.59622
249.662	45.23396
250.129	82.72415
250.597	108.77301
251.064	107.79349
251.532	85.26079
251.999	88.45943
252.467	120.73578
252.934	84.0874
253.401	129.41689
253.869	57.8883
254.336	51.81273
254.803	42.71345
255.27	69.63815
255.737	56.24687
256.204	77.06039
256.671	52.21776
257.138	98.4373
257.605	98.07653
258.072	55.55026
258.539	44.70171
259.005	61.45382
259.472	68.21969
259.939	66.66203
260.405	87.49844
260.872	79.20462
261.338	96.07805
261.805	57.40216
262.271	70.58333
262.737	73.25247
263.203	84.74425
263.67	111.11266
264.136	55.43027
264.602	60.16388
265.068	111.29187
265.534	74.99628
266	70.68488
266.466	83.33085
266.932	50.64553
267.398	69.22582
267.864	88.88695
268.329	70.40411
268.795	62.62166
269.261	84.31105
269.726	58.24745
270.192	79.72735
270.657	105.49555
271.123	54.83414
271.588	57.35807
272.053	94.44369
272.519	83.89514
272.984	67.49477
273.449	79.30656
273.914	28.56774
274.379	47.16456
274.844	57.40216
275.309	74.35454
275.774	62.63313
276.239	41.85631
276.704	89.91382
277.169	91.20734
277.634	80.16875
278.098	64.70203
278.563	56.16081
279.028	55.35439
279.492	60.79408
279.957	58.32986
280.421	57.37113
280.886	85.71241
281.35	40.19121
281.814	76.54032
282.279	96.20196
282.743	54.21277
283.207	111.43034
283.671	55.99633
284.135	49.99454
284.599	104.39643
285.063	109.09199
285.527	73.07286
285.991	74.57183
286.455	103.53003
286.919	60.29912
287.382	91.3029
287.846	68.91577
288.31	53.32741
288.773	104.76253
289.237	78.94423
289.7	101.81838
290.164	75.80194
290.627	90.47475
291.09	59.99619
291.554	89.99821
292.017	81.47906
292.48	71.81376
292.943	63.63282
293.406	53.39297
293.869	92.30696
294.332	75.26538
294.795	65.34862
295.258	130.77546
295.721	70.28413
296.184	79.37829
296.646	75.85785
297.109	48.03416
297.572	111.36585
298.034	91.02438
298.497	60.93448
298.959	86.66426
299.422	90.66541
299.884	41.09238
300.346	110.7156
300.809	90.24247
301.271	71.94793
301.733	78.70011
302.195	63.94955
302.657	86.27211
303.119	70.11132
303.581	119.70006
304.043	61.85887
304.505	108.47565
304.967	78.45936
305.429	64.04087
305.891	78.56862
306.352	66.6615
306.814	173.99127
307.275	76.40131
307.737	101.06403
308.198	86.85821
308.66	74.50596
309.121	93.81332
309.583	92.30696
310.044	64.27997
310.505	66.66256
310.966	102.27313
311.428	67.08514
311.889	77.22419
312.35	94.82702
312.811	67.60255
313.272	71.14961
313.733	33.99554
314.193	-511.22148
314.654	137.50737
315.115	103.70432
315.576	66.33216
316.036	93.54764
316.497	106.25042
316.957	70.36814
317.418	85.45319
317.878	37.49665
318.339	95.06097
318.799	56.94094
319.259	13.85899
319.72	94.99906
320.18	102.2476
320.64	60.57199
321.1	119.0514
321.56	98.61092
322.02	69.50874
322.48	42.21786
322.94	44.4418
323.4	77.02443
323.86	92.53639
324.319	67.99568
324.779	122.37255
325.239	82.18966
325.698	68.68264
326.158	107.08135
326.617	69.06806
327.077	78.15797
327.536	52.32132
327.996	75.5539
328.455	52.57252
328.914	75.33977
329.373	56.56083
329.832	60.97173
330.292	117.30979
330.751	76.24713
331.21	95.99924
331.668	105.8834
332.127	74.70938
332.586	97.75242
333.045	100
333.504	62.28939
333.962	61.40083
334.421	81.24709
334.88	130.77234
335.338	76.69538
335.797	84.5052
336.255	54.5422
336.714	77.88106
337.172	73.49076
337.63	81.91213
338.088	83.74784
338.547	68.11297
339.005	67.89773
339.463	88.07112
339.921	92.78222
340.379	72.9129
340.837	67.77388
341.295	58.75822
341.753	117.24371
342.21	66.33215
342.668	72.9129
343.126	86.95445
343.584	67.85351
344.041	67.26792
344.499	136.11813
344.956	85.41548
345.414	86.20348
345.871	124.56486
346.328	61.60189
346.786	43.55943
347.243	94.36545
347.7	48.71408
348.157	60.14405
348.614	95.45379
349.071	65.85
349.528	71.69384
349.985	67.67247
350.442	64.59664
350.899	59.29821
351.356	91.52361
351.812	63.94955
352.269	106.58001
352.726	61.53541
353.182	68.41779
353.639	128.84999
354.095	56.40454
354.552	84.81857
355.008	79.30657
355.465	75.69703
355.921	65.42846
356.377	74.99598
356.833	58.09017
357.289	91.58715
357.745	74.52431
358.201	74.1621
358.657	96.59033
359.113	66.38128
359.569	73.28567
360.025	84.06779
360.481	85.71174
360.937	78.35682
361.392	60.68545
361.848	47.08453
362.303	43.74219
362.759	66.06921
363.214	42.8466
363.67	68.23738
364.125	58.58144
364.581	52.99438
365.036	62.06924
365.491	69.55364
365.946	59.34001
366.401	61.36699
366.856	51.73367
367.311	61.6567
367.766	59.56366
368.221	62.88049
368.676	56.53653
369.131	55.92174
369.586	61.77991
370.041	58.63416
370.495	57.25168
370.95	55.52222
371.404	62.27882
371.859	59.27393
372.313	56.63315
372.768	60.67215
373.222	56.42549
373.676	56.64948
374.131	54.77555
374.585	53.09628
375.039	54.82587
375.493	59.57576
375.947	52.67992
376.401	56.44861
376.855	58.14266
377.309	57.14798
377.763	57.56649
378.217	56.07987
378.67	57.27397
379.124	56.71603
379.578	54.66217
380.031	56.11815
380.485	56.70273
380.938	55.49433
381.392	55.93194
381.845	56.9819
382.299	55.47207
382.752	57.75151
383.205	56.89
383.658	55.82162
384.111	56.55017
384.564	56.45922
385.018	55.98413
385.471	58.41041
385.923	56.89285
386.376	55.57571
386.829	56.58909
387.282	56.11774
387.735	55.9426
388.187	55.902
388.64	56.31005
389.093	56.73476
389.545	57.37795
389.998	55.40489
390.45	56.60022
390.902	56.4934
391.355	55.95333
391.807	56.96331
392.259	55.72699
392.711	57.28191
393.163	56.01419
393.615	56.97739
394.068	56.76869
394.519	56.45638
394.971	56.30504
395.423	57.03387
395.875	56.42402
396.327	56.69612
396.779	56.30357
397.23	55.7006
397.682	56.6334
398.133	55.85985
398.585	55.97464
399.036	55.92775
399.488	54.76695
399.939	55.5801
400.39	55.13112
400.842	55.32178
401.293	55.61619
401.744	55.11289
402.195	55.58212
402.646	54.726
403.097	54.97768
403.548	54.75678
403.999	54.35891
404.45	54.69835
404.9	55.32083
405.351	54.6687
405.802	54.85974
406.253	54.23735
406.703	54.02849
407.154	54.06713
407.604	53.7663
408.055	54.09593
408.505	53.75637
408.955	53.45221
409.406	52.64204
409.856	52.78622
410.306	53.17288
410.756	53.17427
411.206	53.08627
411.656	52.90207
412.106	52.09211
412.556	52.14217
413.006	52.33874
413.456	51.42726
413.905	51.84362
414.355	51.28193
414.805	50.80223
415.254	50.93054
415.704	50.83771
416.153	50.78863
416.603	49.94699
417.052	50.30144
417.502	50.5896
417.951	49.64095
418.4	50.10985
418.849	50.03991
419.298	49.49475
419.748	49.78499
420.197	50.17259
420.646	49.16533
421.094	49.15123
421.543	49.48979
421.992	48.97841
422.441	48.77191
422.89	48.55654
423.338	48.38134
423.787	48.00568
424.236	48.23983
424.684	48.70533
425.133	48.20181
425.581	47.6514
426.029	47.92475
426.478	47.36716
426.926	47.19356
427.374	47.83512
427.822	47.69788
428.27	47.36886
428.718	47.20484
429.166	47.49873
429.614	47.03398
430.062	47.40958
430.51	46.50258
430.958	46.74941
431.406	46.70233
431.853	46.36169
432.301	46.4581
432.749	46.22059
433.196	46.51254
433.644	46.38894
434.091	46.43313
434.538	46.18368
434.986	46.07875
435.433	46.09488
435.88	45.98463
436.327	46.44301
436.775	46.17625
437.222	45.90754
437.669	45.55505
438.116	45.44027
438.563	46.19474
439.009	45.56882
439.456	45.81678
439.903	46.02729
440.35	44.839
440.796	45.34576
441.243	45.15093
441.689	45.38053
442.136	45.46511
442.582	45.12482
443.029	45.43313
443.475	45.24792
443.921	45.03087
444.368	45.32369
444.814	45.35939
445.26	45.49361
445.706	45.39443
446.152	45.52876
446.598	45.3883
447.044	45.29882
447.49	45.71972
447.936	45.52337
448.381	45.39561
448.827	45.58821
449.273	45.53697
449.718	45.3566
450.164	45.53878
450.61	45.18935
451.055	45.67664
451.5	45.88468
451.946	45.85312
452.391	46.0758
452.836	45.78311
453.282	45.64143
453.727	45.92362
454.172	45.81978
454.617	45.76651
455.062	45.67167
455.507	46.05894
455.952	46.16254
456.396	46.20418
456.841	46.47453
457.286	46.5543
457.731	46.8184
458.175	46.72932
458.62	46.46752
459.064	46.28605
459.509	46.3953
459.953	46.50125
460.398	46.83997
460.842	46.85588
461.286	47.1096
461.73	47.0553
462.174	47.17543
462.619	47.17239
463.063	47.50418
463.507	47.32375
463.951	47.48324
464.394	47.81735
464.838	47.64085
465.282	48.23238
465.726	48.18607
466.17	48.49097
466.613	48.31619
467.057	48.31608
467.5	48.53885
467.944	48.27939
468.387	48.93494
468.831	48.93662
469.274	49.50023
469.717	49.8114
470.16	50.09141
470.603	49.92801
471.047	50.31956
471.49	50.61302
471.933	50.59512
472.376	50.86178
472.818	50.83682
473.261	51.01249
473.704	51.1797
474.147	51.56563
474.59	51.32774
475.032	51.64948
475.475	52.2435
475.917	52.11759
476.36	52.36445
476.802	52.6207
477.245	52.44307
477.687	52.92226
478.129	53.2757
478.571	53.19812
479.013	53.71931
479.456	53.82913
479.898	53.84414
480.34	54.27261
480.782	53.92858
481.224	53.87269
481.665	54.34005
482.107	54.34101
482.549	54.35163
482.991	54.19034
483.432	54.52262
483.874	54.47078
484.315	54.98203
484.757	54.71953
485.198	55.1357
485.64	55.1067
486.081	55.15955
486.522	55.86945
486.963	55.34645
487.405	55.63758
487.846	56.07448
488.287	55.95008
488.728	56.05139
489.169	56.25285
489.61	56.59988
490.05	56.6003
490.491	56.71981
490.932	56.18539
491.373	56.40866
491.813	56.40332
492.254	56.48082
492.694	56.89275
493.135	56.3645
493.575	56.67123
494.016	56.61356
494.456	57.07819
494.896	57.36088
495.336	57.85013
495.777	57.79278
496.217	57.51282
496.657	57.38242
497.097	58.11901
497.537	57.79156
497.977	57.93012
498.416	57.74833
498.856	58.08708
499.296	57.73207
499.736	58.09596
500.175	57.94543
500.615	58.45854
501.054	58.50365
501.494	58.62112
501.933	58.79061
502.373	58.56568
502.812	58.78275
503.251	58.97993
503.69	59.30474
504.129	59.70062
504.569	59.88487
505.008	59.78846
505.447	59.96766
505.886	60.61556
506.324	60.6185
506.763	60.72192
507.202	61.1107
507.641	61.32054
508.079	61.34034
508.518	61.38895
508.957	62.05952
509.395	61.67505
509.834	62.27915
510.272	62.52257
510.71	62.31642
511.149	63.16112
511.587	63.28554
512.025	63.48201
512.463	63.52337
512.901	63.67378
513.339	63.89472
513.777	64.62717
514.215	63.93468
514.653	64.24422
515.091	64.75928
515.529	65.0816
515.966	65.2342
516.404	65.55852
516.842	66.13445
517.279	66.52714
517.717	66.00677
518.154	65.64965
518.592	66.71246
519.029	65.9507
519.466	66.57654
519.904	67.07664
520.341	67.51844
520.778	67.94775
521.215	68.29648
521.652	68.51244
522.089	68.56736
522.526	68.91776
522.963	68.65398
523.399	69.32048
523.836	69.62723
524.273	69.97635
524.71	70.35063
525.146	70.67558
525.583	70.71441
526.019	70.45259
526.456	70.47869
526.892	71.08778
527.328	70.71932
527.765	71.25506
528.201	71.40664
528.637	72.21802
529.073	72.02567
529.509	72.53417
529.945	72.25618
530.381	73.08957
530.817	72.35949
531.253	72.5565
531.689	73.27296
532.124	73.51607
532.56	73.397
532.996	73.04977
533.431	73.29906
533.867	73.49162
534.302	73.88166
534.738	73.92633
535.173	74.23602
535.608	74.48136
536.044	74.48769
536.479	74.37246
536.914	74.29864
537.349	74.85551
537.784	74.5421
538.219	75.07182
538.654	75.21622
539.089	74.98889
539.524	74.73753
539.959	75.43979
540.393	75.07813
540.828	75.39934
541.263	75.51781
541.697	76.06998
542.132	75.90418
542.566	75.77898
543.001	75.8071
543.435	76.09447
543.869	76.02012
544.303	76.09032
544.738	75.93902
545.172	75.96785
545.606	76.37774
546.04	75.94642
546.474	76.50245
546.908	76.05607
547.342	75.55358
547.775	75.8616
548.209	75.81471
548.643	75.32808
549.077	76.08887
549.51	75.64024
549.944	75.73264
550.377	75.86919
550.811	75.84036
551.244	75.23773
551.677	74.77865
552.111	75.25525
552.544	75.11306
552.977	75.18839
553.41	74.96436
553.843	74.80764
554.276	74.65366
554.709	74.10804
555.142	74.13666
555.575	74.11834
556.008	73.94058
556.44	73.21558
556.873	73.01653
557.306	72.9596
557.738	72.2956
558.171	72.55088
558.603	72.75771
559.036	72.12077
559.468	71.83721
559.9	71.61244
560.333	71.59891
560.765	71.33672
561.197	71.06785
561.629	70.84817
562.061	70.07502
562.493	69.94014
562.925	70.1447
563.357	69.98692
563.789	69.29944
564.22	70.22159
564.652	69.60259
565.084	69.15819
565.515	68.71805
565.947	67.99911
566.378	68.15853
566.81	68.14762
567.241	67.56615
567.672	67.57529
568.104	67.67603
568.535	66.94548
568.966	66.7049
569.397	66.02027
569.828	66.10274
570.259	66.36538
570.69	65.62512
571.121	65.39021
571.552	65.3688
571.983	64.73257
572.414	64.62679
572.844	64.49141
573.275	64.38567
573.705	64.37145
574.136	63.98312
574.566	64.10896
574.997	63.87436
575.427	63.34592
575.857	63.19573
576.288	63.00647
576.718	63.02722
577.148	62.35305
577.578	62.39728
578.008	62.24155
578.438	61.80954
578.868	61.53312
579.298	61.37646
579.728	60.91852
580.157	60.38652
580.587	60.15558
581.017	59.73553
581.446	59.83771
581.876	59.42761
582.305	59.00189
582.735	58.85351
583.164	58.58102
583.593	58.33846
584.023	57.86625
584.452	57.77726
584.881	57.43693
585.31	57.66684
585.739	57.55031
586.168	57.43403
586.597	56.99548
587.026	56.99633
587.455	57.34135
587.884	57.00623
588.312	56.90838
588.741	56.27453
589.17	56.63487
589.598	56.53395
590.027	55.92268
590.455	55.54443
590.884	55.37047
591.312	55.34734
591.74	55.36494
592.168	54.86935
592.597	54.65311
593.025	54.66187
593.453	54.30042
593.881	54.00902
594.309	53.67335
594.737	53.15967
595.165	53.10302
595.592	53.2787
596.02	53.32769
596.448	52.80982
596.875	52.63211
597.303	52.54788
597.73	52.35795
598.158	51.78003
598.585	51.85229
599.013	51.27981
599.44	51.15588
599.867	51.29232
600.294	51.0087
600.722	51.29896
601.149	51.15794
601.576	51.26674
602.003	51.20243
602.43	50.93585
602.856	50.81861
603.283	51.09211
603.71	50.68718
604.137	50.62854
604.563	50.39751
604.99	50.05322
605.416	49.88214
605.843	49.53534
606.269	49.37658
606.696	49.32325
607.122	49.34385
607.548	49.15957
607.975	49.36395
608.401	49.37278
608.827	49.3606
609.253	49.21823
609.679	48.87041
610.105	48.28918
610.531	48.53679
610.956	48.08112
611.382	48.23804
611.808	48.1305
612.234	48.28392
612.659	48.0735
613.085	48.49897
613.51	48.0383
613.936	47.99577
614.361	47.86505
614.786	48.10593
615.212	47.69635
615.637	47.60293
616.062	47.3509
616.487	47.17224
616.912	47.48801
617.337	47.09951
617.762	47.65141
618.187	46.90682
618.612	47.0938
619.037	46.80159
619.461	46.85643
619.886	46.74736
620.311	46.51243
620.735	47.18208
621.16	47.05183
621.584	46.60162
622.008	46.76584
622.433	46.85758
622.857	46.83616
623.281	46.46965
623.705	46.57717
624.13	46.83024
624.554	46.49434
624.978	46.87544
625.402	46.76527
625.826	46.71535
626.249	46.7013
626.673	46.43013
627.097	46.40438
627.521	46.42607
627.944	46.52628
628.368	46.36095
628.791	46.65219
629.215	46.63442
629.638	46.66824
630.061	46.84149
630.485	47.06149
630.908	46.84702
631.331	46.86201
631.754	47.22803
632.177	47.16053
632.6	46.82965
633.023	47.05019
633.446	46.92342
633.869	47.21376
634.292	47.4971
634.715	47.88118
635.137	47.74864
635.56	47.73362
635.982	48.19651
636.405	48.10782
636.827	48.05909
637.25	48.51046
637.672	48.42527
638.094	48.70975
638.517	48.46932
638.939	48.79988
639.361	48.75199
639.783	49.63361
640.205	49.28496
640.627	49.43201
641.049	49.50162
641.471	50.12782
641.893	49.7934
642.314	49.68695
642.736	49.76245
643.158	49.86612
643.579	50.74996
644.001	50.16104
644.422	49.8654
644.844	50.18578
645.265	50.1418
645.686	50.2945
646.107	50.08392
646.529	50.38213
646.95	50.95368
647.371	51.12283
647.792	50.99762
648.213	51.52268
648.634	51.72055
649.055	51.60772
649.475	52.23226
649.896	51.88134
650.317	52.07386
650.737	52.18353
651.158	52.34829
651.578	52.81199
651.999	53.01391
652.419	52.84466
652.84	53.45173
653.26	53.40893
653.68	53.92373
654.1	53.46388
654.521	54.14246
654.941	54.09735
655.361	54.3092
655.781	54.92727
656.2	54.69788
656.62	54.69285
657.04	55.39999
657.46	55.39025
657.879	55.01278
658.299	55.45095
658.719	56.28846
659.138	56.0098
659.558	56.69208
659.977	56.29758
660.396	56.71447
660.816	56.31539
661.235	56.81512
661.654	56.49741
662.073	57.56749
662.492	57.64803
662.911	57.52848
663.33	57.93502
663.749	57.10007
664.168	57.75748
664.587	57.37386
665.006	58.22599
665.424	58.58291
665.843	58.57044
666.261	58.91597
666.68	58.63138
667.098	58.86334
667.517	59.39987
667.935	59.01854
668.353	59.66564
668.772	58.89501
669.19	60.11878
669.608	59.72126
670.026	59.66539
670.444	59.6373
670.862	59.59009
671.28	59.81243
671.698	59.29818
672.115	60.05125
672.533	60.19819
672.951	60.04473
673.368	60.51832
673.786	59.74079
674.203	59.89843
674.621	59.35064
675.038	59.69047
675.456	60.45398
675.873	59.59288
676.29	59.81697
676.707	59.7017
677.124	59.38374
677.541	59.67468
677.958	59.29013
678.375	59.62885
678.792	59.68868
679.209	58.91833
679.626	59.87604
680.043	59.77826
680.459	60.36844
680.876	59.58669
681.292	59.92207
681.709	59.71881
682.125	59.55358
682.542	59.156
682.958	58.88838
683.374	59.36671
683.79	59.27155
684.207	59.22284
684.623	59.07255
685.039	59.48256
685.455	59.10102
685.871	58.61807
686.286	58.6207
686.702	58.24419
687.118	58.44317
687.534	58.16149
687.949	58.1358
688.365	58.18379
688.781	57.75497
689.196	57.51279
689.611	57.17486
690.027	57.72637
690.442	56.83109
690.857	56.91664
691.273	56.20388
691.688	56.56888
692.103	56.46424
692.518	56.0372
692.933	55.95113
693.348	55.67999
693.763	56.0127
694.177	54.91199
694.592	55.54149
695.007	55.1192
695.421	55.42338
695.836	54.91975
696.25	54.24781
696.665	54.35542
697.079	53.90321
697.494	53.75364
697.908	52.75008
698.322	53.61644
698.736	52.50228
699.151	53.1337
699.565	52.48925
699.979	52.04102
700.393	52.2123
700.806	51.6229
701.22	51.38351
701.634	51.6211
702.048	51.53198
702.461	51.02631
702.875	50.72047
703.289	50.66296
703.702	50.67128
704.116	49.54888
704.529	50.10546
704.942	49.305
705.356	49.30329
705.769	48.54267
706.182	48.44517
706.595	47.40422
707.008	47.56278
707.421	47.30809
707.834	47.17304
708.247	47.06041
708.66	46.89208
709.072	46.63944
709.485	45.89791
709.898	45.98949
710.31	45.26819
710.723	45.52068
711.135	44.46923
711.548	44.8617
711.96	43.83571
712.373	43.87817
712.785	43.21893
713.197	43.90332
713.609	43.05351
714.021	43.01483
714.433	42.97926
714.845	42.50945
715.257	42.01445
715.669	41.90284
716.081	40.90646
716.493	40.99487
716.904	40.96643
717.316	40.87987
717.727	40.4162
718.139	40.30536
718.55	39.94524
718.962	39.68804
719.373	39.30459
719.784	39.18133
720.196	38.86665
720.607	39.25108
721.018	38.74448
721.429	38.32052
721.84	38.1106
722.251	37.43373
722.662	37.62414
723.073	37.26066
723.483	37.306
723.894	36.17339
724.305	36.08549
724.715	36.41417
725.126	36.41832
725.536	35.36553
725.947	35.26432
726.357	35.09832
726.768	34.9272
727.178	34.75536
727.588	34.59873
727.998	34.55281
728.408	34.52679
728.818	34.0931
729.228	33.57854
729.638	34.00985
730.048	33.42965
730.458	33.46481
730.868	33.16731
731.277	32.97774
731.687	32.76339
732.097	33.08068
732.506	32.04628
732.916	32.53344
733.325	31.85452
733.734	31.77208
734.144	31.27729
734.553	31.64083
734.962	30.8577
735.371	31.20465
735.78	30.49796
736.189	30.86771
736.598	30.13963
737.007	30.45249
737.416	29.87428
737.825	30.08111
738.233	29.54767
738.642	30.35506
739.051	29.66447
739.459	29.7033
739.868	29.4439
740.276	29.50042
740.684	29.1097
741.093	28.96446
741.501	28.89433
741.909	28.41123
742.317	28.38232
742.725	28.01142
743.133	28.03662
743.541	27.68815
743.949	28.07266
744.357	27.76253
744.765	27.44237
745.173	27.2221
745.58	27.9784
745.988	26.79542
746.396	27.32509
746.803	26.81581
747.211	26.78348
747.618	26.82993
748.025	26.28697
748.433	26.74279
748.84	26.00675
749.247	26.71058
749.654	26.17923
750.061	26.483
750.468	25.93846
750.875	26.52708
751.282	26.20717
751.689	26.25741
752.096	25.56238
752.502	26.08008
752.909	26.03789
753.316	25.82461
753.722	25.97405
754.129	25.61918
754.535	25.78703
754.941	25.57082
755.348	25.74202
755.754	25.17981
756.16	25.80054
756.566	24.98615
756.972	25.59451
757.378	25.09512
757.784	24.85386
758.19	25.39355
758.596	24.96189
759.002	24.93651
759.408	24.64814
759.813	24.59059
760.219	24.44185
760.624	24.83813
761.03	24.59432
761.435	24.72426
761.841	24.27443
762.246	23.82373
762.651	24.41195
763.057	23.73957
763.462	24.74558
763.867	24.07226
764.272	24.93856
764.677	24.58932
765.082	24.68067
765.487	24.64731
765.892	24.09614
766.296	24.6777
766.701	24.06109
767.106	24.41879
767.51	23.92477
767.915	24.12244
768.319	24.17719
768.724	23.82467
769.128	23.68743
769.532	23.72331
769.936	24.17101
770.341	23.34075
770.745	24.13807
771.149	22.98019
771.553	23.40007
771.957	23.57654
772.361	22.96422
772.764	23.80562
773.168	22.82315
773.572	23.33844
773.976	23.10092
774.379	23.4064
774.783	23.27286
775.186	23.05222
775.59	23.43399
775.993	22.99806
776.396	23.89098
776.8	23.08656
777.203	23.24101
777.606	23.21917
778.009	22.84528
778.412	23.41328
778.815	22.74808
779.218	23.39196
779.621	23.43518
780.023	23.36819
780.426	23.72902
780.829	23.67508
781.231	23.8936
781.634	22.84687
782.036	23.21534
782.439	23.23034
782.841	22.95619
783.244	23.85205
783.646	22.82998
784.048	23.40806
784.45	23.14595
784.852	23.22711
785.254	23.13135
785.656	23.05722
786.058	23.67119
786.46	22.84452
786.862	23.55452
787.264	22.69963
787.665	22.99857
788.067	23.26225
788.468	22.63684
788.87	23.46064
789.271	22.97738
789.673	23.15677
790.074	23.59199
790.475	22.92611
790.877	23.59126
791.278	23.05231
791.679	23.25895
792.08	23.33858
792.481	23.27011
792.882	23.72361
793.283	22.55401
793.683	23.34723
794.084	22.96097
794.485	23.32495
794.886	23.11376
795.286	22.66533
795.687	22.95907
796.087	22.62821
796.487	22.94644
796.888	23.04936
797.288	22.62437
797.688	22.94538
798.088	22.84966
798.489	23.00426
798.889	23.20726
799.289	22.63341
799.689	23.11094
800.088	23.0713
800.488	22.77812
800.888	23.19009
801.288	23.01203
801.687	23.37799
802.087	23.1738
802.486	23.21059
802.886	23.34675
803.285	23.13668
803.685	23.97563
804.084	23.67118
804.483	23.82131
804.882	24.37332
805.281	23.23156
805.68	24.34931
806.079	24.35651
806.478	23.34918
806.877	23.987
807.276	23.3555
807.675	24.04832
808.074	24.12618
808.472	23.0495
808.871	24.28684
809.269	24.01769
809.668	24.09029
810.066	24.01173
810.465	24.20508
810.863	24.28753
811.261	23.97256
811.659	23.95142
812.057	23.88933
812.455	23.5931
812.853	24.43127
813.251	24.11154
813.649	23.93879
814.047	24.80844
814.445	23.62486
814.843	23.70127
815.24	24.20524
815.638	23.77246
816.035	24.30197
816.433	24.08133
816.83	24.0418
817.228	24.14218
817.625	23.84206
818.022	24.13825
818.419	23.91416
818.816	23.4673
819.213	24.23074
819.61	23.80795
820.007	24.27251
820.404	24.75136
820.801	24.15495
821.198	24.96443
821.595	24.60729
821.991	24.50382
822.388	25.13616
822.784	24.76582
823.181	25.16234
823.577	25.6006
823.974	24.93503
824.37	25.38426
824.766	25.15133
825.162	24.56274
825.558	25.18625
825.954	24.46548
826.35	24.74142
826.746	25.47258
827.142	25.07633
827.538	25.25077
827.934	25.1867
828.33	25.13143
828.725	25.33213
829.121	24.86804
829.516	24.71589
829.912	25.11818
830.307	24.55653
830.703	24.90255
831.098	24.63721
831.493	24.65279
831.888	25.15261
832.283	24.81735
832.678	24.2363
833.073	25.2794
833.468	25.01705
833.863	25.50879
834.258	25.41357
834.653	25.12677
835.048	25.52978
835.442	25.52847
835.837	25.01772
836.231	25.40939
836.626	25.22488
837.02	24.8468
837.415	25.8972
837.809	25.37243
838.203	25.53651
838.597	25.71749
838.991	24.4275
839.385	25.27619
839.779	25.31646
840.173	24.55923
840.567	25.26195
840.961	25.74015
841.355	24.8586
841.748	25.81777
842.142	25.46326
842.536	25.4859
842.929	25.81315
843.323	25.72134
843.716	25.37944
844.109	26.35709
844.503	25.48841
844.896	25.92223
845.289	26.13012
845.682	26.10442
846.075	26.54059
846.468	26.07594
846.861	25.44881
847.254	26.50492
847.647	26.1616
848.04	25.67138
848.432	25.47523
848.825	25.29632
849.217	25.4224
849.61	26.38351
850.002	25.689
850.395	25.46725
850.787	26.06976
851.179	25.28876
851.572	25.68938
851.964	25.99351
852.356	25.9476
852.748	25.50456
853.14	26.27976
853.532	25.52185
853.924	26.47309
854.315	26.10466
854.707	26.37463
855.099	25.93068
855.491	26.3495
855.882	25.60417
856.274	26.27849
856.665	26.392
857.056	25.15088
857.448	25.77654
857.839	25.9928
858.23	25.95011
858.621	26.48882
859.012	26.2722
859.403	24.65769
859.794	25.7548
860.185	26.76222
860.576	25.92924
860.967	25.49196
861.358	26.28186
861.748	25.32934
862.139	25.39151
862.529	26.15244
862.92	24.94014
863.31	25.38699
863.701	26.16801
864.091	25.43824
864.481	25.4104
864.872	26.29119
865.262	25.05191
865.652	25.42719
866.042	25.83641
866.432	25.12893
866.822	26.05597
867.211	25.82485
867.601	25.42562
867.991	26.03286
868.381	25.42872
868.77	25.62016
869.16	25.69496
869.549	25.58523
869.939	24.84081
870.328	25.46832
870.717	25.80981
871.106	25.05294
871.496	25.52021
871.885	24.85086
872.274	24.65345
872.663	25.39804
873.052	25.89894
873.441	24.1296
873.829	25.13376
874.218	25.71294
874.607	24.43257
874.996	25.24484
875.384	25.57267
875.773	24.99736
876.161	24.87838
876.549	25.90364
876.938	25.55589
877.326	25.43873
877.714	25.3833
878.102	24.97172
878.491	24.81535
878.879	25.29686
879.267	25.11281
879.655	24.622
880.042	25.68704
880.43	25.31953
880.818	24.89448
881.206	25.64836
881.593	25.46866
881.981	24.97595
882.368	25.34182
882.756	26.04982
883.143	25.31358
883.53	25.54238
883.918	25.6408
884.305	25.35274
884.692	25.40206
885.079	25.6847
885.466	24.78907
885.853	25.16897
886.24	25.69583
886.627	24.80614
887.014	24.8636
887.4	25.31876
887.787	25.27604
888.174	25.29776
888.56	25.57275
888.947	25.37476
889.333	24.74327
889.719	25.60106
890.106	25.34466
890.492	24.66444
890.878	25.07235
891.264	25.01623
891.65	24.97386
892.036	24.57455
892.422	24.8386
892.808	24.70073
893.194	24.59037
893.58	24.59175
893.965	24.65055
894.351	24.22104
894.736	24.55391
895.122	24.3765
895.507	24.59066
895.893	24.5558
896.278	24.99432
896.663	24.26244
897.049	24.47864
897.434	25.14054
897.819	24.82997
898.204	24.64215
898.589	25.45428
898.974	24.35173
899.359	24.39052
899.743	25.12482
900.128	24.63384
900.513	24.26858
900.897	25.07226
901.282	24.87973
901.667	24.18901
902.051	24.22265
902.435	24.44883
902.82	24.00265
903.204	23.86057
903.588	24.46275
903.972	24.85546
904.356	24.54221
904.74	24.51783
905.124	24.60153
905.508	24.90111
905.892	24.57887
906.276	25.00746
906.659	24.85641
907.043	24.85149
907.427	24.87465
907.81	24.86506
908.194	24.96322
908.577	25.28785
908.96	24.55949
909.344	24.29042
909.727	23.78054
910.11	24.78617
910.493	25.1146
910.876	23.51928
911.259	24.60598
911.642	23.98749
912.025	23.45117
912.408	23.49298
912.79	24.44052
913.173	23.50637
913.556	23.21408
913.938	24.05109
914.321	23.98554
914.703	23.0024
915.086	23.39204
915.468	23.71185
915.85	23.52547
916.232	23.05563
916.614	23.8819
916.996	24.14022
917.378	23.65011
917.76	23.35793
918.142	24.20637
918.524	24.45592
918.906	24.09054
919.288	25.2191
919.669	23.91402
920.051	24.36513
920.432	24.26177
920.814	24.50949
921.195	24.27956
921.577	23.61129
921.958	24.6017
922.339	25.43735
922.72	23.66813
923.101	24.04376
923.482	25.11604
923.863	24.88631
924.244	24.24366
924.625	25.02355
925.006	24.5353
925.387	24.73458
925.767	24.36076
926.148	24.76137
926.528	24.87735
926.909	24.12843
927.289	25.10922
927.67	24.80439
928.05	24.24681
928.43	24.16485
928.81	24.75338
929.191	25.00238
929.571	24.51275
929.951	24.09446
930.331	24.165
930.71	24.15961
931.09	23.13411
931.47	24.80528
931.85	24.55639
932.229	24.65878
932.609	23.38884
932.988	24.80304
933.368	24.02704
933.747	23.95686
934.127	24.88773
934.506	24.16339
934.885	24.39794
935.264	24.45299
935.643	23.94209
936.022	24.96445
936.401	23.888
936.78	24.16463
937.159	23.27858
937.538	23.38987
937.916	23.75769
938.295	24.03016
938.674	22.93114
939.052	23.80477
939.431	25.05107
939.809	24.18714
940.187	23.76084
940.566	22.95391
940.944	25.05472
941.322	24.57996
941.7	25.43236
942.078	24.91467
942.456	23.63592
942.834	24.86726
943.212	23.41327
943.59	23.95419
943.968	23.96734
944.345	25.55523
944.723	24.90251
945.1	25.70966
945.478	24.22401
945.855	23.59604
946.233	22.81517
946.61	23.75375
946.987	23.84229
947.365	24.37374
947.742	24.06721
948.119	23.63036
948.496	22.80266
948.873	23.68122
949.25	24.10675
949.626	23.14251
950.003	23.64705
950.38	23.96441
950.756	24.97533
951.133	25.45406
951.51	24.11117
951.886	24.62024
952.262	24.40974
952.639	23.7666
953.015	24.1653
953.391	24.4391
953.767	23.58119
954.143	22.93256
954.519	23.07193
954.895	23.44486
955.271	23.3943
955.647	24.73526
956.023	22.89648
956.399	23.70985
956.774	23.34578
957.15	23.40541
957.525	23.74276
957.901	21.07064
958.276	25.26466
958.652	23.21791
959.027	25.39013
959.402	21.49361
959.777	24.64248
960.152	21.98647
960.527	22.09683
960.902	23.11201
961.277	22.25666
961.652	21.67188
962.027	23.20238
962.402	22.35135
962.776	22.3267
963.151	19.51725
963.525	22.19729
963.9	23.77132
964.274	20.91568
964.649	21.13754
965.023	22.78681
965.397	23.40614
965.771	21.42856
966.146	21.25232
966.52	21.17405
966.894	23.84777
967.268	23.72041
967.641	21.04342
968.015	21.7523
968.389	21.69231
968.763	22.30168
969.136	22.38344
969.51	23.03617
969.883	23.54505
970.257	21.6378
970.63	23.65593
971.003	21.53234
971.377	22.64829
971.75	21.8445
972.123	22.69364
972.496	21.87499
972.869	21.86284
973.242	22.53008
973.615	22.21325
973.988	22.86483
974.36	22.32806
974.733	23.11145
975.106	20.53049
975.478	23.4292
975.851	22.3992
976.223	20.46292
976.596	20.71169
976.968	23.09896
977.34	21.52256
977.712	21.978
978.085	20.01131
978.457	21.75511
978.829	20.8186
979.201	21.28718
979.573	20.21406
979.944	21.09192
980.316	20.1175
980.688	21.53595
981.059	21.24232
981.431	22.07813
981.803	21.98321
982.174	20.83479
982.545	21.6245
982.917	22.99987
983.288	21.14809
983.659	22.54931
984.03	20.94376
984.401	20.79799
984.772	24.19278
985.143	23.40559
985.514	22.45443
985.885	21.22276
986.256	23.26938
986.627	21.44468
986.997	21.91967
987.368	21.8907
987.738	21.01548
988.109	23.18289
988.479	20.59879
988.85	19.75122
989.22	20.80929
989.59	21.31271
989.96	19.83003
990.33	20.45575
990.7	19.43002
991.07	20.80435
991.44	20.02439
991.81	20.66371
992.18	20.09722
992.549	20.08327
992.919	20.66671
993.289	20.23493
993.658	19.36609
994.028	21.22112
994.397	19.39986
994.766	20.04266
995.136	19.36118
995.505	20.15059
995.874	22.26449
996.243	18.60973
996.612	20.08334
996.981	21.95896
997.35	21.56837
997.719	19.98643
998.088	19.80646
998.456	22.14575
998.825	22.42262
999.194	23.25063
999.562	21.38064
999.931	23.81256
1000.299	21.4301
1000.667	19.95221
1001.036	22.15417
1001.404	22.22631
1001.772	23.70971
1002.14	20.31749
1002.508	24.75921
1002.876	24.82195
1003.244	26.07968
1003.612	21.76155
1003.98	20.28541
1004.347	21.51852
1004.715	21.86272
1005.083	22.50926
1005.45	18.72871
1005.818	23.08444
1006.185	20.46408
1006.552	24.12621
1006.92	24.84492
1007.287	19.98494
1007.654	19.0979
1008.021	20.9923
1008.388	22.62167
1008.755	25.02658
1009.122	17.67475
1009.489	21.27247
1009.856	19.97975
1010.222	21.75268
1010.589	21.78156
1010.956	24.26286
1011.322	21.81407
1011.689	18.32465
1012.055	22.1056
1012.421	21.67632
1012.788	21.06183
1013.154	22.26485
1013.52	24.44224
1013.886	23.70117
1014.252	24.37561
1014.618	19.87841
1014.984	23.48188
1015.35	22.34321
1015.716	20.71449
1016.081	24.75063
1016.447	25.88002
1016.813	22.60306
1017.178	23.45316
1017.544	24.88864
1017.909	27.24743
1018.274	19.55816
1018.64	26.12743
1019.005	26.55795
1019.37	19.2286
1019.735	22.0995
1020.1	21.38406
1020.465	18.24957
1020.83	27.44066
1021.195	24.44726
1021.56	26.30678
1021.924	22.21877
1022.289	23.23731
1022.654	26.7413
1023.018	27.03918
1023.383	28.95233
1023.747	26.12052
1024.111	28.08024
1024.476	21.82254
1024.84	24.71595
1025.204	23.14522
1025.568	22.51972
1025.932	22.4781
1026.296	24.36259
1026.66	29.59403
1027.024	22.8401
1027.387	24.76214
1027.751	21.69525
1028.115	21.91443
1028.478	39.72398
1028.842	26.04179
1029.205	23.30254
1029.569	15.54931
1029.932	27.47561
1030.295	21.31585
1030.659	30.87837
1031.022	32.98949
1031.385	30.27865
1031.748	27.05193
1032.111	26.10411
1032.474	31.34081
1032.836	17.77042
1033.199	28.41905
1033.562	21.29935
1033.924	25.41546
1034.287	26.40084
1034.65	31.71299
1035.012	25.19678
1035.374	21.18298
1035.737	22.61866
1036.099	33.99038
1036.461	29.89325
1036.823	4.48031
1037.185	33.74831
1037.547	23.98828
1037.909	24.47142
1038.271	31.38069
1038.633	25.26876
1038.995	36.40034
1039.356	28.02873
1039.718	30.39303
1040.08	38.31931
1040.441	33.4342
1040.803	24.89585
1041.164	30.3915
1041.525	21.98325
1041.886	20.73904
1042.248	22.65626
1042.609	30.45801
1042.97	28.20305
1043.331	30.24698
1043.692	35.62032
1044.053	44.72568
1044.413	35.81521
1044.774	30.3259
1045.135	26.69417
1045.495	42.48841
1045.856	29.89349
1046.216	29.2848
1046.577	30.36486
1046.937	33.16172
1047.298	26.13844
