Data from 1015water_Reflection__4__16-50-56-922.txt Node

Date: Wed Oct 15 16:50:56 AST 2025
User: lin
Spectrometer: SR600411
Trigger mode: 0
Integration Time (sec): 5.819800E-2
Scans to average: 5
Nonlinearity correction enabled: true
Boxcar width: 0
Storing dark spectrum: false
XAxis mode: Wavelengths
Number of Pixels in Spectrum: 2048
>>>>>Begin Spectral Data<<<<<
187.982	56.76326
188.456	51.27808
188.93	60.46231
189.403	48.95075
189.877	51.4902
190.351	57.8089
190.825	46.2228
191.298	61.39011
191.772	51.45259
192.246	52.52383
192.719	57.80968
193.193	35.95131
193.666	58.32523
194.139	58.35134
194.613	46.08871
195.086	65.27902
195.559	54.15012
196.033	59.09385
196.506	65.5485
196.979	59.09386
197.452	53.27946
197.925	65.27817
198.398	51.73021
198.871	63.62022
199.344	57.4845
199.816	56.32565
200.289	65.45855
200.762	58.39619
201.235	63.95632
201.707	64.11539
202.18	53.32296
202.652	71.14537
203.125	49.99126
203.597	62.72546
204.07	40.76301
204.542	51.60368
205.014	45.32595
205.486	41.56979
205.959	54.95947
206.431	46.18318
206.903	57.04369
207.375	68.5973
207.847	44.62408
208.319	60.86195
208.791	59.5293
209.263	37.97099
209.734	49.14669
210.206	74.99553
210.678	27.996
211.15	67.02898
211.621	54.99509
212.093	61.28449
212.564	59.47721
213.036	46.69077
213.507	68.26476
213.979	71.63639
214.45	53.482
214.921	53.94998
215.392	46.87026
215.864	64.09722
216.335	59.08563
216.806	62.66318
217.277	42.0574
217.748	64.51049
218.219	40.26134
218.69	34.40868
219.161	49.99544
219.631	45.85811
220.102	44.5607
220.573	66.88539
221.043	24.4048
221.514	89.88603
221.985	85.71258
222.455	51.67657
222.926	49.40754
223.396	57.40216
223.866	49.99394
224.337	38.67425
224.807	66.38804
225.277	23.33014
225.747	19.14605
226.217	28.0656
226.687	51.15639
227.157	52.02643
227.627	56.61102
228.097	59.58206
228.567	69.02175
229.037	57.13741
229.507	42.98544
229.977	41.95113
230.446	52.66527
230.916	45.36506
231.386	37.10891
231.855	50.44494
232.325	53.12183
232.794	59.81609
233.263	19.99619
233.733	86.56562
234.202	61.21987
234.671	41.81286
235.14	93.66996
235.61	73.80469
236.079	53.67952
236.548	52.23217
237.017	49.99474
237.486	76.99648
237.955	84.08974
238.424	40.40398
238.892	58.02077
239.361	65.1327
239.83	43.67391
240.299	64.28125
240.767	101.35155
241.236	47.23781
241.704	69.61694
242.173	61.5348
242.641	52.20679
243.109	87.99843
243.578	36.16375
244.046	53.32889
244.514	42.96252
244.982	42.58734
245.451	53.84102
245.919	56.18534
246.387	55.73172
246.855	28.29762
247.323	69.99625
247.791	71.79017
248.258	43.89843
248.726	44.25632
249.194	45.56573
249.662	51.18631
250.129	49.08545
250.597	70.17307
251.064	48.04813
251.532	68.41698
251.999	66.34154
252.467	80.48525
252.934	43.17539
253.401	70.58544
253.869	29.31783
254.336	67.26792
254.803	19.41428
255.27	18.74661
255.737	17.18569
256.204	63.29772
256.671	53.32889
257.138	21.87283
257.605	58.64883
258.072	16.66369
258.539	50.58402
259.005	76.03819
259.472	21.49174
259.939	47.61385
260.405	77.77531
260.872	40.58922
261.338	47.0563
261.805	58.32812
262.271	42.85135
262.737	43.01907
263.203	66.09907
263.67	74.6008
264.136	80.43191
264.602	65.24893
265.068	72.57819
265.534	46.99505
266	45.68394
266.466	45.55112
266.932	25.97109
267.398	53.84038
267.864	48.47994
268.329	51.01554
268.795	28.27884
269.261	83.33052
269.726	56.30565
270.192	45.94229
270.657	73.62286
271.123	44.08147
271.588	47.28043
272.053	69.44141
272.519	42.36715
272.984	35.82786
273.449	40.51169
273.914	26.37012
274.379	42.44768
274.844	47.21687
275.309	20.50903
275.774	70.3259
276.239	33.71711
276.704	48.73359
277.169	59.3363
277.634	64.64991
278.098	44.70171
278.563	52.05117
279.028	-3.57102
279.492	64.79434
279.957	54.16312
280.421	49.17428
280.886	22.07529
281.35	43.13228
281.814	48.14413
282.279	46.83154
282.743	65.05649
283.207	57.13945
283.671	79.99762
284.135	20.90548
284.599	94.50456
285.063	74.54338
285.527	58.64883
285.991	51.68906
286.455	90.5868
286.919	56.48216
287.382	64.12623
287.846	48.64498
288.31	36.66114
288.773	57.13979
289.237	48.41634
289.7	30.90676
290.164	45.15519
290.627	59.51979
291.09	76.24712
291.554	79.99682
292.017	101.23477
292.48	27.26839
292.943	38.9574
293.406	17.47278
293.869	101.92328
294.332	68.81324
294.795	67.71102
295.258	87.17776
295.721	54.34103
296.184	46.38696
296.646	47.40805
297.109	53.91654
297.572	62.4959
298.034	57.68852
298.497	67.1847
298.959	37.13799
299.422	35.99657
299.884	5.4787
300.346	28.56916
300.809	95.1212
301.271	58.53263
301.733	93.51722
302.195	59.29821
302.657	47.05378
303.119	64.36385
303.581	56.05738
304.043	44.90945
304.505	57.62426
304.967	9.22969
305.429	26.96281
305.891	63.09135
306.352	46.14807
306.814	78.07971
307.275	51.68098
307.737	65.95325
308.198	42.32912
308.66	69.60356
309.121	69.06805
309.583	-5.7686
310.044	42.85101
310.505	24.72774
310.966	60.22308
311.428	53.16065
311.889	53.46035
312.35	87.92981
312.811	77.46233
313.272	27.88047
313.733	27.996
314.193	-755.78392
314.654	52.77422
315.115	80.24436
315.576	49.49994
316.036	58.06152
316.497	46.87342
316.957	25.92387
317.418	-5.45392
317.878	66.66349
318.339	40.73685
318.799	63.88559
319.259	36.62901
319.72	51.99504
320.18	73.03022
320.64	37.49516
321.1	46.42442
321.56	37.49665
322.02	30.48435
322.48	42.21786
322.94	18.5169
323.4	28.37539
323.86	97.01454
324.319	56.99514
324.779	117.10829
325.239	45.20189
325.698	82.82549
326.158	63.71162
326.617	83.50251
327.077	60.91543
327.536	63.94955
327.996	-17.77591
328.455	49.47972
328.914	42.46221
329.373	32.31893
329.832	67.06957
330.292	74.99806
330.751	67.49652
331.21	57.99517
331.668	71.76129
332.127	64.36385
332.586	65.16453
333.045	51.0369
333.504	79.50425
333.962	59.6464
334.421	52.07857
334.88	12.81965
335.338	39.80093
335.797	47.8838
336.255	65.14854
336.714	44.22567
337.172	65.05649
337.63	44.67623
338.088	64.99639
338.547	81.15733
339.005	35.79877
339.463	61.46277
339.921	58.75822
340.379	41.66203
340.837	25.55216
341.295	46.38696
341.753	25.85986
342.21	48.50984
342.668	71.87114
343.126	72.82247
343.584	44.04351
344.041	48.17637
344.499	112.50201
344.956	85.41548
345.414	66.20046
345.871	84.20902
346.328	37.49479
346.786	41.57929
347.243	74.64522
347.7	21.79223
348.157	51.12122
348.614	52.26837
349.071	51.21544
349.528	53.76835
349.985	60.60137
350.442	46.01213
350.899	36.04258
351.356	60.16387
351.812	34.87984
352.269	22.3658
352.726	66.15096
353.182	31.57569
353.639	73.07489
354.095	35.89209
354.552	42.8517
355.008	84.47974
355.465	22.42621
355.921	24.68837
356.377	27.77348
356.833	58.09017
357.289	38.31273
357.745	31.12756
358.201	71.66183
358.657	77.26966
359.113	78.98768
359.569	70.17965
360.025	47.78201
360.481	82.85419
360.937	56.13199
361.392	61.26353
361.848	52.89848
362.303	29.36842
362.759	66.9504
363.214	47.45471
363.67	50.70044
364.125	50.76857
364.581	54.4982
365.036	43.85305
365.491	64.48024
365.946	59.66263
366.401	53.00881
366.856	52.27277
367.311	50.74193
367.766	53.78933
368.221	55.99983
368.676	56.32145
369.131	52.38983
369.586	63.50781
370.041	56.06082
370.495	55.30963
370.95	58.30053
371.404	55.20218
371.859	57.8705
372.313	57.10164
372.768	55.64836
373.222	56.02698
373.676	55.99326
374.131	55.31234
374.585	53.49602
375.039	53.68839
375.493	59.50042
375.947	54.1933
376.401	55.9873
376.855	53.2218
377.309	57.14798
377.763	55.02441
378.217	55.97065
378.67	55.13877
379.124	56.61794
379.578	53.11758
380.031	56.07458
380.485	56.04116
380.938	55.07216
381.392	55.0183
381.845	54.67747
382.299	56.10755
382.752	56.2107
383.205	55.3843
383.658	56.26995
384.111	55.46936
384.564	54.28977
385.018	55.23642
385.471	54.68827
385.923	56.51076
386.376	54.89848
386.829	55.70633
387.282	55.57701
387.735	56.18994
388.187	55.63525
388.64	56.63436
389.093	55.74868
389.545	55.93803
389.998	55.86088
390.45	56.06604
390.902	56.3666
391.355	57.0237
391.807	56.66536
392.259	55.45383
392.711	55.72891
393.163	56.20767
393.615	57.12004
394.068	55.73415
394.519	56.67775
394.971	56.81901
395.423	56.55896
395.875	55.72759
396.327	56.47289
396.779	56.7498
397.23	56.30432
397.682	56.0557
398.133	56.0408
398.585	55.38848
399.036	56.05942
399.488	55.21972
399.939	55.77361
400.39	55.49529
400.842	56.31962
401.293	55.91483
401.744	55.65374
402.195	56.0331
402.646	54.64828
403.097	54.91739
403.548	55.45581
403.999	55.06838
404.45	55.07769
404.9	54.58269
405.351	54.59643
405.802	55.02745
406.253	54.20732
406.703	54.59101
407.154	54.2436
407.604	54.35469
408.055	53.12374
408.505	53.25767
408.955	53.40137
409.406	52.99245
409.856	53.59119
410.306	52.73882
410.756	53.24457
411.206	53.18197
411.656	53.21633
412.106	52.33818
412.556	52.1672
413.006	52.32219
413.456	51.91559
413.905	51.65255
414.355	51.52469
414.805	51.03413
415.254	51.4134
415.704	51.37723
416.153	51.42559
416.603	50.40136
417.052	50.4405
417.502	51.39602
417.951	50.15952
418.4	50.2249
418.849	50.26611
419.298	49.99434
419.748	49.43433
420.197	50.04713
420.646	49.68946
421.094	49.59574
421.543	50.15854
421.992	49.39286
422.441	49.05591
422.89	49.08232
423.338	48.71357
423.787	48.59481
424.236	48.54313
424.684	48.56514
425.133	47.90848
425.581	48.11319
426.029	48.32133
426.478	48.06883
426.926	48.11746
427.374	47.98624
427.822	47.67553
428.27	47.61087
428.718	46.59857
429.166	47.47338
429.614	47.19195
430.062	47.82941
430.51	47.38725
430.958	47.23394
431.406	47.50523
431.853	46.65081
432.301	46.40621
432.749	46.52175
433.196	46.8897
433.644	45.95525
434.091	46.36532
434.538	46.11404
434.986	46.30703
435.433	45.8196
435.88	46.51569
436.327	46.26467
436.775	46.11019
437.222	46.10849
437.669	45.74059
438.116	46.07547
438.563	45.98839
439.009	45.87803
439.456	45.96253
439.903	46.3111
440.35	45.4539
440.796	45.12351
441.243	45.6545
441.689	45.54539
442.136	45.73633
442.582	45.31868
443.029	45.6221
443.475	45.32086
443.921	44.94297
444.368	45.01964
444.814	45.89321
445.26	45.89901
445.706	45.83643
446.152	45.56222
446.598	45.83261
447.044	45.12996
447.49	45.84361
447.936	45.95065
448.381	45.47536
448.827	45.86155
449.273	45.87625
449.718	45.82527
450.164	45.55276
450.61	45.29636
451.055	46.00909
451.5	45.84872
451.946	45.90488
452.391	45.97265
452.836	45.59423
453.282	45.81208
453.727	45.67557
454.172	45.68595
454.617	46.10539
455.062	45.57704
455.507	46.48899
455.952	46.45311
456.396	46.35945
456.841	46.23502
457.286	46.67949
457.731	46.7979
458.175	46.23324
458.62	46.58371
459.064	46.75544
459.509	46.61111
459.953	46.58076
460.398	46.7434
460.842	46.71157
461.286	47.10447
461.73	47.08249
462.174	47.4966
462.619	47.694
463.063	47.44893
463.507	47.62475
463.951	47.7746
464.394	47.92416
464.838	48.24547
465.282	48.49567
465.726	48.25243
466.17	48.41312
466.613	48.75504
467.057	48.68966
467.5	48.70632
467.944	48.61695
468.387	49.13823
468.831	49.23885
469.274	49.44826
469.717	49.81897
470.16	49.74749
470.603	50.27129
471.047	50.23179
471.49	50.64198
471.933	50.55282
472.376	50.88331
472.818	50.92263
473.261	51.25298
473.704	51.56639
474.147	51.48742
474.59	51.87403
475.032	51.52401
475.475	52.20802
475.917	52.01139
476.36	52.25763
476.802	52.8203
477.245	52.8506
477.687	53.02716
478.129	53.40544
478.571	53.48081
479.013	53.72509
479.456	53.68981
479.898	53.87064
480.34	54.43947
480.782	54.16452
481.224	54.45616
481.665	54.72435
482.107	54.57588
482.549	54.64296
482.991	54.82129
483.432	54.83464
483.874	55.0317
484.315	55.45598
484.757	55.35265
485.198	55.3048
485.64	55.55138
486.081	55.65779
486.522	55.97362
486.963	56.10224
487.405	56.16826
487.846	56.50675
488.287	56.27792
488.728	56.68759
489.169	56.47928
489.61	56.90367
490.05	56.46538
490.491	56.98924
490.932	56.29267
491.373	56.811
491.813	56.73922
492.254	57.30525
492.694	57.00621
493.135	56.77914
493.575	57.02796
494.016	56.80012
494.456	57.35022
494.896	57.51847
495.336	57.79003
495.777	57.54947
496.217	57.95112
496.657	58.18465
497.097	58.17031
497.537	58.38459
497.977	58.39702
498.416	58.29408
498.856	58.25282
499.296	58.26825
499.736	58.66229
500.175	58.42726
500.615	59.14927
501.054	58.85419
501.494	59.07048
501.933	59.22561
502.373	59.49986
502.812	59.30335
503.251	59.36053
503.69	59.41374
504.129	60.03899
504.569	60.11983
505.008	60.01279
505.447	60.64536
505.886	60.62289
506.324	61.09794
506.763	60.65618
507.202	61.33942
507.641	61.55726
508.079	61.53078
508.518	61.6741
508.957	62.15841
509.395	62.34108
509.834	62.99846
510.272	63.25202
510.71	63.16132
511.149	63.48099
511.587	63.71511
512.025	63.60497
512.463	63.83764
512.901	64.64245
513.339	64.71044
513.777	64.57866
514.215	64.53712
514.653	64.72866
515.091	65.71981
515.529	65.181
515.966	65.36102
516.404	65.94002
516.842	66.18007
517.279	66.33351
517.717	66.56192
518.154	66.51895
518.592	66.91327
519.029	66.95381
519.466	67.42153
519.904	67.80496
520.341	67.80477
520.778	67.9761
521.215	68.83816
521.652	69.06636
522.089	69.18562
522.526	69.22575
522.963	69.33397
523.399	70.21969
523.836	69.90709
524.273	70.85573
524.71	70.80262
525.146	71.08851
525.583	71.64973
526.019	70.74722
526.456	71.33356
526.892	71.6679
527.328	71.74864
527.765	72.36177
528.201	71.76393
528.637	72.5031
529.073	72.15817
529.509	72.96626
529.945	73.03969
530.381	72.96812
530.817	73.04666
531.253	73.02232
531.689	73.99649
532.124	73.46775
532.56	74.04467
532.996	74.00721
533.431	74.19278
533.867	74.36762
534.302	74.14969
534.738	74.72785
535.173	74.98225
535.608	75.44002
536.044	75.04608
536.479	75.02061
536.914	75.13374
537.349	75.82182
537.784	75.18137
538.219	76.29173
538.654	76.02595
539.089	75.88495
539.524	74.77878
539.959	75.68802
540.393	75.37178
540.828	75.97825
541.263	76.09882
541.697	76.83043
542.132	76.42728
542.566	76.46057
543.001	76.1049
543.435	76.25209
543.869	76.18829
544.303	76.16594
544.738	76.32949
545.172	75.97687
545.606	76.12227
546.04	76.28396
546.474	76.57922
546.908	76.16624
547.342	76.26701
547.775	76.52251
548.209	76.58676
548.643	76.01953
549.077	76.938
549.51	76.47705
549.944	76.24829
550.377	75.98134
550.811	75.69157
551.244	75.58623
551.677	75.56917
552.111	75.79976
552.544	75.33344
552.977	76.49561
553.41	75.09269
553.843	75.28688
554.276	75.32573
554.709	74.51386
555.142	75.36916
555.575	74.62676
556.008	75.09408
556.44	73.87815
556.873	73.9652
557.306	73.73096
557.738	73.05455
558.171	73.4729
558.603	73.45269
559.036	73.2616
559.468	72.23292
559.9	72.45861
560.333	71.84973
560.765	71.91445
561.197	71.87526
561.629	71.4253
562.061	71.00373
562.493	70.84775
562.925	70.64256
563.357	70.50157
563.789	70.04398
564.22	69.77849
564.652	70.30779
565.084	70.1271
565.515	69.50625
565.947	68.52978
566.378	68.99327
566.81	68.88644
567.241	68.61186
567.672	68.41872
568.104	68.33426
568.535	67.48536
568.966	67.67903
569.397	67.29623
569.828	67.18078
570.259	66.99681
570.69	66.22256
571.121	65.98129
571.552	65.82612
571.983	65.31781
572.414	65.40785
572.844	64.97441
573.275	65.23402
573.705	64.99072
574.136	64.27355
574.566	65.02194
574.997	64.49347
575.427	64.05387
575.857	64.06755
576.288	63.54938
576.718	64.1323
577.148	63.18934
577.578	63.16636
578.008	63.26758
578.438	62.53305
578.868	62.10364
579.298	61.66385
579.728	61.40686
580.157	61.04728
580.587	60.75225
581.017	60.19031
581.446	60.05301
581.876	60.06159
582.305	59.52646
582.735	59.39052
583.164	59.29631
583.593	58.44139
584.023	58.43509
584.452	58.37417
584.881	57.88641
585.31	57.84066
585.739	58.00942
586.168	57.83261
586.597	57.58133
587.026	57.61302
587.455	57.82123
587.884	57.80044
588.312	57.5883
588.741	56.84088
589.17	57.1257
589.598	57.15778
590.027	56.53515
590.455	56.47663
590.884	56.09963
591.312	56.00002
591.74	55.79948
592.168	55.2817
592.597	55.33303
593.025	54.70425
593.453	54.44613
593.881	54.43023
594.309	54.08647
594.737	53.56321
595.165	53.38067
595.592	53.22532
596.02	53.22297
596.448	52.87858
596.875	52.69148
597.303	52.83405
597.73	52.38359
598.158	52.23401
598.585	52.09299
599.013	51.88847
599.44	51.87792
599.867	51.68581
600.294	51.55767
600.722	51.53349
601.149	51.70606
601.576	51.52979
602.003	51.23642
602.43	51.25422
602.856	50.9415
603.283	51.03418
603.71	50.85914
604.137	50.80322
604.563	50.51792
604.99	50.17667
605.416	50.17654
605.843	49.56307
606.269	49.68306
606.696	49.60389
607.122	49.03481
607.548	49.30904
607.975	49.35691
608.401	49.19054
608.827	49.33795
609.253	49.14632
609.679	48.95643
610.105	48.52121
610.531	48.51133
610.956	48.44591
611.382	48.42966
611.808	48.29081
612.234	48.34524
612.659	48.4092
613.085	48.32261
613.51	48.18376
613.936	47.9886
614.361	47.5352
614.786	47.852
615.212	47.60579
615.637	47.53086
616.062	47.33256
616.487	46.96823
616.912	47.50205
617.337	47.27114
617.762	47.50198
618.187	47.31676
618.612	47.35119
619.037	46.94566
619.461	47.21824
619.886	46.89633
620.311	46.91597
620.735	47.15338
621.16	47.01237
621.584	47.01075
622.008	46.83269
622.433	46.73383
622.857	46.74534
623.281	46.89722
623.705	46.66516
624.13	46.61114
624.554	46.37913
624.978	46.60779
625.402	46.49466
625.826	46.61817
626.249	46.50982
626.673	46.77931
627.097	46.66103
627.521	46.60078
627.944	46.7427
628.368	46.58783
628.791	46.73094
629.215	46.47672
629.638	46.74872
630.061	47.13611
630.485	46.37988
630.908	46.60656
631.331	46.74655
631.754	46.93115
632.177	47.12589
632.6	46.76152
633.023	46.96811
633.446	47.4617
633.869	47.29168
634.292	47.86178
634.715	47.67333
635.137	47.7574
635.56	47.8163
635.982	48.555
636.405	48.06496
636.827	48.47985
637.25	48.31395
637.672	48.45103
638.094	48.42201
638.517	48.21022
638.939	48.43998
639.361	48.59069
639.783	49.49203
640.205	49.39265
640.627	49.14994
641.049	49.34988
641.471	49.48425
641.893	49.22262
642.314	50.09557
642.736	49.90398
643.158	50.00314
643.579	50.38775
644.001	50.1771
644.422	49.68609
644.844	50.13957
645.265	49.9526
645.686	50.47565
646.107	50.01369
646.529	50.40438
646.95	50.67147
647.371	50.61981
647.792	51.11584
648.213	51.29073
648.634	51.47196
649.055	51.39959
649.475	51.61649
649.896	51.55673
650.317	52.04097
650.737	52.24165
651.158	52.03458
651.578	52.62824
651.999	53.22518
652.419	52.40741
652.84	53.31906
653.26	52.93234
653.68	53.77815
654.1	53.62884
654.521	54.38002
654.941	53.87419
655.361	54.24075
655.781	54.58398
656.2	55.03147
656.62	55.2683
657.04	55.81969
657.46	55.09245
657.879	55.19789
658.299	56.22091
658.719	55.88348
659.138	55.67026
659.558	56.77809
659.977	56.45401
660.396	56.71226
660.816	56.41422
661.235	57.1161
661.654	56.58004
662.073	57.23633
662.492	57.24707
662.911	57.84378
663.33	57.80773
663.749	57.59414
664.168	57.58184
664.587	57.51232
665.006	58.35417
665.424	58.4881
665.843	58.74061
666.261	58.93317
666.68	58.56013
667.098	59.35437
667.517	58.98653
667.935	58.8019
668.353	59.17868
668.772	59.26238
669.19	59.47693
669.608	59.3611
670.026	59.59351
670.444	59.42494
670.862	59.82322
671.28	59.48802
671.698	59.65914
672.115	60.33014
672.533	60.32719
672.951	60.05718
673.368	60.74493
673.786	59.56337
674.203	60.34303
674.621	59.76332
675.038	60.03272
675.456	60.03448
675.873	59.91294
676.29	60.0251
676.707	59.97705
677.124	59.7729
677.541	60.16012
677.958	59.0964
678.375	59.84511
678.792	59.72968
679.209	59.45169
679.626	60.41409
680.043	59.85382
680.459	60.22113
680.876	59.78552
681.292	59.81897
681.709	59.57936
682.125	59.30587
682.542	59.64007
682.958	59.09131
683.374	59.61197
683.79	59.46678
684.207	59.78458
684.623	59.50561
685.039	59.4699
685.455	59.30097
685.871	58.77499
686.286	58.86447
686.702	58.55082
687.118	58.72688
687.534	58.63289
687.949	58.50698
688.365	58.16402
688.781	57.84437
689.196	58.02644
689.611	57.5947
690.027	57.98881
690.442	57.39454
690.857	57.74207
691.273	57.05498
691.688	56.85849
692.103	56.80448
692.518	56.40303
692.933	56.51393
693.348	55.80801
693.763	55.98988
694.177	55.37272
694.592	55.72433
695.007	55.59627
695.421	55.45762
695.836	55.26087
696.25	54.25352
696.665	54.19875
697.079	53.76819
697.494	53.7421
697.908	53.1817
698.322	53.75544
698.736	53.01725
699.151	53.22341
699.565	52.6716
699.979	52.68192
700.393	52.21617
700.806	52.19945
701.22	51.93887
701.634	51.63655
702.048	51.85864
702.461	51.07452
702.875	51.0996
703.289	50.81191
703.702	50.98499
704.116	50.03584
704.529	50.55724
704.942	49.61122
705.356	49.48495
705.769	49.41908
706.182	48.79778
706.595	48.18543
707.008	47.96322
707.421	47.84814
707.834	47.66258
708.247	47.18142
708.66	46.78264
709.072	47.14833
709.485	46.36494
709.898	46.244
710.31	45.8864
710.723	46.20733
711.135	44.98769
711.548	45.08128
711.96	44.66444
712.373	44.86348
712.785	43.98652
713.197	44.23072
713.609	43.72336
714.021	43.51988
714.433	43.11617
714.845	42.79682
715.257	42.41564
715.669	42.22055
716.081	41.87662
716.493	41.38831
716.904	41.55962
717.316	41.23389
717.727	40.85123
718.139	40.33135
718.55	40.39031
718.962	40.04203
719.373	39.99153
719.784	39.72071
720.196	39.39677
720.607	39.1899
721.018	38.69478
721.429	38.42062
721.84	38.73768
722.251	37.80589
722.662	37.80016
723.073	37.69789
723.483	37.54224
723.894	36.54808
724.305	36.83474
724.715	36.74816
725.126	36.59529
725.536	35.84152
725.947	35.87226
726.357	35.85631
726.768	35.70718
727.178	35.41893
727.588	35.27747
727.998	34.98741
728.408	34.67731
728.818	34.62497
729.228	34.20046
729.638	33.85579
730.048	33.70128
730.458	33.70371
730.868	33.46265
731.277	33.47572
731.687	33.07726
732.097	32.99311
732.506	32.83766
732.916	32.58851
733.325	32.29614
733.734	32.31513
734.144	31.76305
734.553	31.73256
734.962	31.05235
735.371	31.32946
735.78	30.8472
736.189	31.14137
736.598	30.85994
737.007	31.33855
737.416	30.03503
737.825	30.54622
738.233	29.53508
738.642	30.15711
739.051	29.68945
739.459	29.75501
739.868	29.51336
740.276	29.60685
740.684	29.60042
741.093	29.08867
741.501	28.94023
741.909	28.64358
742.317	28.60681
742.725	28.51001
743.133	28.64633
743.541	28.17971
743.949	28.26235
744.357	27.98402
744.765	27.98757
745.173	27.51637
745.58	27.94197
745.988	27.37807
746.396	27.70804
746.803	27.31387
747.211	27.495
747.618	27.29264
748.025	26.80403
748.433	27.07351
748.84	26.84868
749.247	27.26417
749.654	26.39654
750.061	26.75595
750.468	26.51931
750.875	26.76053
751.282	26.39293
751.689	26.39517
752.096	25.9519
752.502	26.40649
752.909	26.13019
753.316	25.9722
753.722	25.94574
754.129	25.59879
754.535	26.05797
754.941	25.54608
755.348	25.96672
755.754	25.22326
756.16	25.7069
756.566	25.77556
756.972	25.46905
757.378	25.4392
757.784	25.23818
758.19	25.50447
758.596	25.10444
759.002	25.32157
759.408	24.83653
759.813	25.28871
760.219	24.94428
760.624	24.78663
761.03	24.7259
761.435	24.75922
761.841	24.42199
762.246	24.12628
762.651	24.56706
763.057	23.77705
763.462	24.82815
763.867	24.50865
764.272	25.13662
764.677	24.67779
765.082	24.95898
765.487	25.02021
765.892	24.38685
766.296	24.7087
766.701	24.09161
767.106	24.59623
767.51	24.17306
767.915	24.27629
768.319	24.52167
768.724	24.03993
769.128	24.02349
769.532	23.75524
769.936	24.19878
770.341	23.81799
770.745	23.94128
771.149	23.16529
771.553	23.66415
771.957	23.96661
772.361	23.33319
772.764	23.64041
773.168	22.84555
773.572	23.33844
773.976	23.41267
774.379	23.58878
774.783	23.50696
775.186	23.25163
775.59	23.34547
775.993	22.78115
776.396	23.73048
776.8	22.98883
777.203	23.52436
777.606	23.53176
778.009	22.92364
778.412	23.70364
778.815	23.13682
779.218	23.95683
779.621	23.49551
780.023	23.55055
780.426	23.57979
780.829	24.15461
781.231	23.79303
781.634	23.3687
782.036	23.83909
782.439	23.15244
782.841	23.24258
783.244	23.60983
783.646	22.86915
784.048	23.59068
784.45	23.49841
784.852	23.603
785.254	23.08678
785.656	23.31623
786.058	23.74318
786.46	22.9256
786.862	23.55452
787.264	22.87123
787.665	23.32913
788.067	23.02504
788.468	22.81589
788.87	23.4046
789.271	22.88549
789.673	23.32836
790.074	23.79259
790.475	22.89356
790.877	23.4967
791.278	23.49271
791.679	23.76719
792.08	23.3224
792.481	23.29213
792.882	23.41737
793.283	23.161
793.683	23.30545
794.084	23.06208
794.485	22.97101
794.886	23.25926
795.286	22.57513
795.687	23.14729
796.087	22.83857
796.487	22.99467
796.888	23.22523
797.288	22.82071
797.688	23.02816
798.088	23.06896
798.489	22.87499
798.889	23.20998
799.289	22.82052
799.689	23.40815
800.088	23.09404
800.488	22.86805
800.888	23.17535
801.288	22.80429
801.687	23.5028
802.087	23.23538
802.486	23.31457
802.886	23.84016
803.285	23.23285
803.685	24.35391
804.084	23.58015
804.483	23.90352
804.882	24.27088
805.281	23.5642
805.68	24.10867
806.079	24.13175
806.478	23.74453
806.877	24.37968
807.276	23.7106
807.675	23.9494
808.074	24.05411
808.472	24.01768
808.871	23.99885
809.269	23.85699
809.668	24.15552
810.066	23.90838
810.465	23.65338
810.863	24.87421
811.261	24.0244
811.659	23.98059
812.057	23.81945
812.455	23.79997
812.853	24.33603
813.251	23.93319
813.649	24.00389
814.047	24.02763
814.445	23.87589
814.843	24.18194
815.24	24.32819
815.638	24.17859
816.035	24.4226
816.433	24.11645
816.83	24.0953
817.228	24.3173
817.625	23.83989
818.022	24.35498
818.419	24.11498
818.816	23.68489
819.213	24.26414
819.61	23.96906
820.007	24.22279
820.404	24.68059
820.801	24.19454
821.198	24.99508
821.595	24.61088
821.991	24.58209
822.388	25.34561
822.784	25.05286
823.181	25.39053
823.577	25.70943
823.974	25.248
824.37	25.82979
824.766	25.45841
825.162	25.25116
825.558	25.30687
825.954	24.7369
826.35	24.98753
826.746	25.63825
827.142	25.11815
827.538	25.68789
827.934	25.65184
828.33	25.3043
828.725	25.38532
829.121	25.25227
829.516	24.89903
829.912	24.91371
830.307	24.55653
830.703	25.42029
831.098	25.42422
831.493	25.01395
831.888	25.04403
832.283	24.67067
832.678	24.76126
833.073	25.54268
833.468	24.93826
833.863	25.47124
834.258	25.64338
834.653	25.0614
835.048	25.89152
835.442	25.80466
835.837	25.25355
836.231	25.75577
836.626	25.57813
837.02	25.26613
837.415	25.77529
837.809	25.7822
838.203	26.07311
838.597	25.5577
838.991	24.97646
839.385	25.22966
839.779	26.02597
840.173	25.15278
840.567	25.46241
840.961	25.97615
841.355	25.61362
841.748	25.93886
842.142	25.42558
842.536	25.47768
842.929	26.23818
843.323	25.63713
843.716	25.88614
844.109	26.08459
844.503	25.7355
844.896	25.93373
845.289	26.42563
845.682	25.98813
846.075	26.65429
846.468	26.16558
846.861	25.74576
847.254	26.15511
847.647	25.81346
848.04	25.35512
848.432	26.08302
848.825	25.89381
849.217	25.38695
849.61	25.70413
850.002	25.71093
850.395	25.4746
850.787	26.27045
851.179	25.40713
851.572	26.88432
851.964	25.97873
852.356	25.04863
852.748	25.0492
853.14	26.53957
853.532	25.77325
853.924	26.89686
854.315	25.95797
854.707	26.71911
855.099	26.89447
855.491	26.67869
855.882	26.06712
856.274	26.70034
856.665	26.62962
857.056	26.47181
857.448	25.25708
857.839	26.01568
858.23	25.58776
858.621	25.94439
859.012	26.34748
859.403	25.36189
859.794	26.50524
860.185	26.69259
860.576	25.88311
860.967	26.57392
861.358	26.38084
861.748	25.87006
862.139	25.85841
862.529	25.33089
862.92	25.72052
863.31	25.82669
863.701	26.00909
864.091	25.53202
864.481	25.37756
864.872	26.04388
865.262	26.06032
865.652	26.19557
866.042	25.83
866.432	25.34726
866.822	26.32431
867.211	25.96449
867.601	25.43753
867.991	25.65198
868.381	25.8175
868.77	25.63164
869.16	25.46929
869.549	25.46847
869.939	24.97186
870.328	25.60371
870.717	26.16011
871.106	25.25787
871.496	25.94151
871.885	25.34346
872.274	25.39877
872.663	26.03265
873.052	25.67592
873.441	25.64555
873.829	25.47228
874.218	25.84421
874.607	24.9123
874.996	25.29459
875.384	25.29417
875.773	25.18653
876.161	24.88559
876.549	26.04809
876.938	25.65873
877.326	25.5329
877.714	25.50107
878.102	24.91093
878.491	24.84087
878.879	25.33018
879.267	25.09611
879.655	24.88244
880.042	25.76806
880.43	25.13382
880.818	25.29943
881.206	25.80757
881.593	25.66236
881.981	25.22123
882.368	26.02584
882.756	26.07668
883.143	25.85783
883.53	25.83165
883.918	25.60955
884.305	25.52509
884.692	25.65244
885.079	25.56933
885.466	25.16092
885.853	25.18896
886.24	25.96027
886.627	25.33212
887.014	25.05113
887.4	25.27762
887.787	25.35368
888.174	24.70915
888.56	25.15014
888.947	24.99327
889.333	25.14994
889.719	25.67349
890.106	25.18573
890.492	25.26247
890.878	24.78257
891.264	25.37506
891.65	24.90054
892.036	24.71974
892.422	25.18609
892.808	24.61648
893.194	24.42499
893.58	24.86176
893.965	24.87867
894.351	24.5033
894.736	24.51811
895.122	24.76991
895.507	24.55685
895.893	24.74335
896.278	25.32105
896.663	24.72202
897.049	24.6915
897.434	25.70436
897.819	24.74335
898.204	25.26765
898.589	25.46595
898.974	24.72625
899.359	24.60861
899.743	25.56727
900.128	24.83737
900.513	25.16161
900.897	24.99072
901.282	24.81913
901.667	24.09295
902.051	24.05677
902.435	24.73
902.82	24.04592
903.204	23.77828
903.588	24.64738
903.972	24.80445
904.356	24.62392
904.74	24.53489
905.124	24.90905
905.508	24.87408
905.892	24.52844
906.276	25.01117
906.659	24.9225
907.043	24.47581
907.427	24.9979
907.81	24.73812
908.194	24.99084
908.577	24.67451
908.96	25.2466
909.344	25.08379
909.727	23.56859
910.11	24.9202
910.493	24.12413
910.876	23.82017
911.259	25.00846
911.642	24.42293
912.025	23.43156
912.408	24.29229
912.79	24.33132
913.173	23.78995
913.556	23.3335
913.938	24.17701
914.321	23.867
914.703	23.37026
915.086	23.98246
915.468	24.35294
915.85	23.78558
916.232	23.55408
916.614	23.94394
916.996	23.86293
917.378	24.15343
917.76	24.22415
918.142	24.52329
918.524	24.2892
918.906	24.34098
919.288	25.0867
919.669	25.01672
920.051	24.78541
920.432	24.7926
920.814	24.60463
921.195	24.28574
921.577	24.38677
921.958	25.5247
922.339	25.679
922.72	24.7521
923.101	24.26216
923.482	25.45631
923.863	24.65832
924.244	24.27659
924.625	24.61246
925.006	23.96742
925.387	25.11899
925.767	24.3788
926.148	26.19492
926.528	24.26653
926.909	24.0449
927.289	24.66896
927.67	24.01719
928.05	23.85314
928.43	24.38609
928.81	24.1566
929.191	24.08666
929.571	24.48567
929.951	24.34385
930.331	24.03512
930.71	22.66441
931.09	23.09684
931.47	24.82422
931.85	23.79221
932.229	24.08001
932.609	23.91752
932.988	24.75285
933.368	24.31059
933.747	23.78312
934.127	24.69163
934.506	24.07899
934.885	22.59086
935.264	25.15323
935.643	24.214
936.022	23.65414
936.401	24.50188
936.78	23.88403
937.159	23.721
937.538	23.2383
937.916	24.71544
938.295	23.60784
938.674	23.72936
939.052	24.28434
939.431	24.08985
939.809	23.29357
940.187	24.23299
940.566	23.67339
940.944	24.07511
941.322	24.62826
941.7	23.3684
942.078	24.71017
942.456	23.01099
942.834	23.49592
943.212	22.91428
943.59	24.97693
943.968	23.42661
944.345	23.64072
944.723	24.04346
945.1	23.73276
945.478	23.24683
945.855	23.28649
946.233	23.70839
946.61	24.01198
946.987	24.46887
947.365	23.34742
947.742	23.34648
948.119	23.16953
948.496	23.38971
948.873	22.6141
949.25	25.48099
949.626	23.61247
950.003	23.59528
950.38	24.19391
950.756	23.65097
951.133	25.16446
951.51	23.63329
951.886	23.33533
952.262	23.16214
952.639	23.40203
953.015	22.23698
953.391	23.39831
953.767	22.43473
954.143	23.0707
954.519	22.88533
954.895	22.2101
955.271	24.30571
955.647	24.31033
956.023	22.48648
956.399	24.88512
956.774	23.17406
957.15	24.57903
957.525	23.86271
957.901	22.50643
958.276	23.06051
958.652	21.21993
959.027	23.97575
959.402	24.07526
959.777	24.61079
960.152	21.54822
960.527	22.55575
960.902	21.9696
961.277	22.12576
961.652	23.07725
962.027	22.79833
962.402	20.29528
962.776	21.36343
963.151	17.31261
963.525	22.76126
963.9	24.33183
964.274	21.55516
964.649	21.55254
965.023	23.21223
965.397	22.05804
965.771	22.21107
966.146	19.30701
966.52	22.46812
966.894	24.42973
967.268	22.03583
967.641	22.39797
968.015	20.6752
968.389	21.40193
968.763	21.92048
969.136	24.37302
969.51	21.52861
969.883	21.73682
970.257	23.05308
970.63	22.82184
971.003	21.0086
971.377	21.76439
971.75	20.01518
972.123	21.81936
972.496	22.99011
972.869	23.37111
973.242	20.6245
973.615	22.77584
973.988	22.57902
974.36	23.48251
974.733	21.46997
975.106	20.74317
975.478	22.43413
975.851	20.77506
976.223	21.14518
976.596	21.38033
976.968	22.72436
977.34	21.78934
977.712	20.97811
978.085	20.6423
978.457	20.62868
978.829	22.305
979.201	21.71738
979.573	20.78693
979.944	21.30505
980.316	20.70211
980.688	22.15949
981.059	21.93481
981.431	21.36373
981.803	21.98321
982.174	21.14902
982.545	22.05101
982.917	22.19682
983.288	21.66237
983.659	20.3302
984.03	19.93466
984.401	20.5669
984.772	22.95098
985.143	24.16463
985.514	21.49324
985.885	22.02696
986.256	21.11751
986.627	20.67377
986.997	20.93798
987.368	21.99511
987.738	19.23515
988.109	22.8079
988.479	22.35667
988.85	20.9083
989.22	22.16833
989.59	21.01347
989.96	18.997
990.33	20.50825
990.7	19.19408
991.07	21.10352
991.44	19.99953
991.81	20.44718
992.18	20.08415
992.549	20.32116
992.919	20.81294
993.289	19.64546
993.658	20.28869
994.028	21.3509
994.397	20.62459
994.766	18.40298
995.136	19.74409
995.505	20.99672
995.874	18.82636
996.243	19.4957
996.612	20.35631
996.981	20.87122
997.35	22.23444
997.719	22.23046
998.088	20.29648
998.456	21.69994
998.825	23.52724
999.194	20.33078
999.562	22.32547
999.931	21.08746
1000.299	20.01048
1000.667	19.47807
1001.036	19.96385
1001.404	19.85667
1001.772	20.86915
1002.14	20.14372
1002.508	19.57517
1002.876	22.4589
1003.244	20.8602
1003.612	19.22964
1003.98	21.0924
1004.347	21.71427
1004.715	24.18
1005.083	19.83134
1005.45	19.00429
1005.818	22.40103
1006.185	18.04738
1006.552	20.02309
1006.92	24.03419
1007.287	19.41567
1007.654	22.74808
1008.021	21.56
1008.388	20.39859
1008.755	21.87983
1009.122	20.39048
1009.489	18.96449
1009.856	17.1997
1010.222	18.04812
1010.589	20.80856
1010.956	23.31441
1011.322	18.71579
1011.689	19.27535
1012.055	22.1056
1012.421	19.26652
1012.788	23.53271
1013.154	22.88368
1013.52	16.59321
1013.886	23.46637
1014.252	21.68281
1014.618	17.15892
1014.984	22.49953
1015.35	20.47331
1015.716	18.15841
1016.081	19.79845
1016.447	18.53815
1016.813	22.60306
1017.178	24.44322
1017.544	23.10298
1017.909	20.87267
1018.274	25.31959
1018.64	21.6015
1019.005	21.64621
1019.37	21.0319
1019.735	16.48156
1020.1	25.75989
1020.465	14.62677
1020.83	20.00383
1021.195	28.22137
1021.56	20.52688
1021.924	23.33802
1022.289	16.7548
1022.654	17.42478
1023.018	25.06011
1023.383	16.23924
1023.747	23.34443
1024.111	24.65082
1024.476	24.70895
1024.84	19.80672
1025.204	23.14522
1025.568	24.22332
1025.932	17.16421
1026.296	17.75466
1026.66	25.55742
1027.024	19.98454
1027.387	21.0029
1027.751	18.18837
1028.115	16.21584
1028.478	29.79022
1028.842	20.79199
1029.205	19.31309
1029.569	25.61286
1029.932	24.21848
1030.295	26.35946
1030.659	24.27707
1031.022	28.83429
1031.385	17.22995
1031.748	19.44925
1032.111	17.40153
1032.474	20.48079
1032.836	12.6926
1033.199	29.84036
1033.562	16.92972
1033.924	17.70421
1034.287	21.01208
1034.65	26.66664
1035.012	20.9967
1035.374	16.11046
1035.737	11.91982
1036.099	20.73801
1036.461	26.15597
1036.823	15.50974
1037.185	19.92588
1037.547	24.29587
1037.909	25.94586
1038.271	18.30377
1038.633	24.15382
1038.995	31.77707
1039.356	18.23451
1039.718	26.34
1040.08	20.99015
1040.441	27.29225
1040.803	18.48266
1041.164	18.30694
1041.525	10.30395
1041.886	23.228
1042.248	20.32371
1042.609	33.19188
1042.97	31.41662
1043.331	21.39319
1043.692	36.38649
1044.053	30.25363
1044.413	18.10278
1044.774	28.82809
1045.135	2.09347
1045.495	27.07396
1045.856	24.99242
1046.216	23.22533
1046.577	26.16003
1046.937	35.60044
1047.298	22.92814
