Data from 1015water_Reflection__14__16-52-13-753.txt Node

Date: Wed Oct 15 16:52:13 AST 2025
User: lin
Spectrometer: SR600411
Trigger mode: 0
Integration Time (sec): 5.819800E-2
Scans to average: 5
Nonlinearity correction enabled: true
Boxcar width: 0
Storing dark spectrum: false
XAxis mode: Wavelengths
Number of Pixels in Spectrum: 2048
>>>>>Begin Spectral Data<<<<<
187.982	52.36744
188.456	61.6109
188.93	46.62783
189.403	52.49061
189.877	61.52442
190.351	59.16958
190.825	57.69258
191.298	70.51457
191.772	52.70784
192.246	52.52383
192.719	69.18538
193.193	47.2806
193.666	67.84987
194.139	54.63361
194.613	55.17969
195.086	66.65385
195.559	51.47145
196.033	55.64517
196.506	66.92623
196.979	59.3402
197.452	56.44592
197.925	59.62155
198.398	64.73192
198.871	69.58751
199.344	59.04717
199.816	52.78561
200.289	56.01105
200.762	72.11488
201.235	56.66813
201.707	70.84289
202.18	69.99125
202.652	61.52869
203.125	49.99126
203.597	36.01749
204.07	56.1475
204.542	74.18648
205.014	80.66202
205.486	53.14851
205.959	68.86775
206.431	50.24404
206.903	61.53113
207.375	56.38696
207.847	51.96863
208.319	68.31606
208.791	48.54633
209.263	43.03413
209.734	47.45179
210.206	63.3278
210.678	12.99775
211.15	63.73209
211.621	34.99549
212.093	56.44557
212.564	74.13352
213.036	58.87378
213.507	93.26793
213.979	90.29618
214.45	56.58285
214.921	59.70559
215.392	87.49792
215.864	58.114
216.335	84.5426
216.806	78.66417
217.277	42.85102
217.748	84.67422
218.219	38.24804
218.69	38.95377
219.161	84.78025
219.631	69.1673
220.102	56.51725
220.573	56.74955
221.043	43.3009
221.514	91.00979
221.985	104.28634
222.455	46.62042
222.926	74.11441
223.396	60.18005
223.866	72.94604
224.337	43.39105
224.807	66.38804
225.277	65.55152
225.747	44.67624
226.217	75.4344
226.687	43.40456
227.157	41.45749
227.627	47.0521
228.097	46.56813
228.567	69.02175
229.037	51.78016
229.507	48.59282
229.977	64.32915
230.446	40.45175
230.916	71.29191
231.386	50.51065
231.855	48.64315
232.325	98.4373
232.794	63.3877
233.263	35.82785
233.733	70.14647
234.202	67.34266
234.671	55.44915
235.14	103.79809
235.61	49.99374
236.079	62.10082
236.548	51.48589
237.017	71.69384
237.486	86.99776
237.955	65.90713
238.424	60.26703
238.892	61.72459
239.361	84.40082
239.83	31.03079
240.299	66.32219
240.767	106.75782
241.236	44.08827
241.704	59.48989
242.173	44.86796
242.641	61.05661
243.109	100
243.578	54.60299
244.046	62.21802
244.514	55.46247
244.982	56.47621
245.451	45.18719
245.919	73.32925
246.387	25.40524
246.855	62.25921
247.323	29.99625
247.791	53.84038
248.258	71.94793
248.726	41.79739
249.194	53.16065
249.662	90.47475
250.129	64.54046
250.597	57.89198
251.064	79.21826
251.532	78.94423
251.999	64.41834
252.467	123.17537
252.934	49.99345
253.401	70.58544
253.869	60.89597
254.336	33.63149
254.803	27.18042
255.27	53.56589
255.737	32.8097
256.204	49.53587
256.671	62.21802
257.138	70.30985
257.605	87.49774
258.072	6.48018
258.539	72.93784
259.005	49.99523
259.472	34.57463
259.939	40.94734
260.405	62.49665
260.872	46.52966
261.338	62.74273
261.805	73.14394
262.271	47.89326
262.737	81.39276
263.203	94.91469
263.67	41.26681
264.136	76.08363
264.602	50.8416
265.068	67.73925
265.534	87.9979
266	59.47721
266.466	68.88506
266.932	41.55473
267.398	56.40454
267.864	91.91773
268.329	63.26078
268.795	38.37919
269.261	112.74801
269.726	85.43435
270.192	36.48308
270.657	112.09036
271.123	83.86847
271.588	53.482
272.053	90.27652
272.519	61.01137
272.984	45.82742
273.449	62.92566
273.914	20.87614
274.379	76.4113
274.844	45.36505
275.309	47.85745
275.774	57.13843
276.239	59.2982
276.704	64.70049
277.169	107.6938
277.634	72.40919
278.098	11.76295
278.563	67.12009
279.028	-23.2111
279.492	60.79408
279.957	43.05205
280.421	50.81362
280.886	24.67248
281.35	48.03416
281.814	83.94845
282.279	108.86227
282.743	71.08095
283.207	69.99708
283.671	109.33485
284.135	32.72246
284.599	91.20734
285.063	110.91041
285.527	61.53357
285.991	55.07895
286.455	69.40818
286.919	60.29912
287.382	19.56234
287.846	108.1094
288.31	29.16175
288.773	112.7002
289.237	49.46897
289.7	109.09199
290.164	68.54308
290.627	95.23734
291.09	47.49604
291.554	71.996
292.017	45.67502
292.48	30.90442
292.943	90.90783
293.406	33.00519
293.869	55.76668
294.332	100
294.795	60.6239
295.258	92.30659
295.721	69.55942
296.184	54.6344
296.646	36.20158
297.109	44.11265
297.572	39.76854
298.034	106.41131
298.497	35.93458
298.959	73.32926
299.422	69.33016
299.884	35.61312
300.346	49.99722
300.809	75.60675
301.271	54.87402
301.733	72.21792
302.195	74.41536
302.657	90.19429
303.119	44.82331
303.581	90.90801
304.043	54.23147
304.505	37.2854
304.967	78.45936
305.429	8.98732
305.891	100
306.352	66.6615
306.814	102.74013
307.275	78.64872
307.737	58.5061
308.198	75.90743
308.66	64.70126
309.121	77.31621
309.583	113.46312
310.044	71.42346
310.505	6.4505
310.966	53.40474
311.428	60.75575
311.889	58.41097
312.35	86.20553
312.811	49.29225
313.272	57.68727
313.733	49.99504
314.193	349.96906
314.654	87.49844
315.115	76.54032
315.576	45.53958
316.036	104.83933
316.497	178.13384
316.957	9.25836
317.418	5.45398
317.878	31.94134
318.339	74.07098
318.799	47.21866
319.259	40.58922
319.72	54.99508
320.18	89.88603
320.64	55.76414
321.1	49.99583
321.56	77.77531
322.02	37.80105
322.48	58.88456
322.94	57.40479
323.4	52.69904
323.86	79.10228
324.319	49.99504
324.779	77.62896
325.239	73.96981
325.698	70.703
326.158	78.75731
326.617	89.68894
327.077	68.96182
327.536	43.01907
327.996	66.66468
328.455	60.82015
328.914	53.42105
329.373	46.45976
329.832	39.02051
330.292	26.92104
330.751	86.24812
331.21	49.99504
331.668	85.88031
332.127	83.90571
332.586	77.52501
333.045	69.78765
333.504	62.28939
333.962	78.94549
334.421	77.07996
334.88	38.45971
335.338	23.29732
335.797	76.05377
336.255	39.39081
336.714	46.14871
337.172	79.51539
337.63	80.84817
338.088	53.74605
338.547	92.7527
339.005	43.20593
339.463	61.46277
339.921	73.1921
340.379	72.9129
340.837	62.21802
341.295	61.85113
341.753	15.51573
342.21	50.49003
342.668	65.62069
343.126	47.82153
343.584	91.66539
344.041	49.08545
344.499	98.61092
344.956	83.33201
345.414	73.78754
345.871	63.15526
346.328	76.78175
346.786	60.39124
347.243	52.10916
347.7	28.20199
348.157	49.61746
348.614	81.81558
349.071	46.33741
349.528	36.78756
349.985	59.59123
350.442	61.05661
350.899	60.46104
351.356	82.19996
351.812	83.7186
352.269	42.10158
352.726	121.54184
353.182	52.62782
353.639	94.23021
354.095	39.31069
354.552	55.35165
355.008	60.33932
355.465	67.28505
355.921	48.14413
356.377	43.51325
356.833	63.80471
357.289	58.87336
357.745	83.0159
358.201	71.66183
358.657	29.54181
359.113	91.59482
359.569	59.61963
360.025	63.71163
360.481	56.18535
360.937	57.30164
361.392	44.50019
361.848	59.87553
362.303	38.11751
362.759	60.78223
363.214	55.74975
363.67	56.38782
364.125	58.9721
364.581	50.7387
365.036	57.97959
365.491	64.84261
365.946	53.21051
366.401	55.31442
366.856	59.28145
367.311	56.07216
367.766	53.3274
368.221	55.01694
368.676	58.90246
369.131	57.03714
369.586	64.85178
370.041	52.45841
370.495	53.20585
370.95	57.56937
371.404	59.14859
371.859	55.82924
372.313	57.80439
372.768	56.87632
373.222	53.03839
373.676	54.68087
374.131	61.03894
374.585	51.25754
375.039	56.79767
375.493	55.80916
375.947	56.1884
376.401	56.97584
376.855	57.1459
377.309	57.74565
377.763	53.61234
378.217	57.77288
378.67	54.32546
379.124	56.42176
379.578	56.1161
380.031	55.98742
380.485	54.01536
380.938	55.34081
381.392	53.26437
381.845	55.89945
382.299	57.5459
382.752	56.4308
383.205	54.79391
383.658	55.87766
384.111	55.41665
384.564	55.17718
385.018	56.0776
385.471	56.74845
385.923	55.7891
386.376	55.13067
386.829	54.12511
387.282	55.97819
387.735	55.59636
388.187	56.02753
388.64	56.13316
389.093	55.84728
389.545	56.11132
389.998	56.20291
390.45	56.16316
390.902	55.91705
391.355	56.83413
391.807	55.43133
392.259	55.69664
392.711	56.09766
393.163	56.06026
393.615	56.33558
394.068	56.67463
394.519	56.06289
394.971	56.67667
395.423	57.47823
395.875	56.27005
396.327	56.47289
396.779	56.54062
397.23	56.50108
397.682	55.94284
398.133	55.85339
398.585	55.52226
399.036	56.36669
399.488	55.06674
399.939	55.39871
400.39	55.53709
400.842	55.47258
401.293	55.50494
401.744	55.70553
402.195	55.66774
402.646	54.73155
403.097	54.86258
403.548	55.12777
403.999	55.10573
404.45	54.69308
404.9	54.20855
405.351	54.83387
405.802	54.80892
406.253	54.23234
406.703	54.23257
407.154	53.41534
407.604	53.76144
408.055	53.70031
408.505	53.45525
408.955	52.80535
409.406	52.99245
409.856	53.745
410.306	52.77867
410.756	53.19624
411.206	52.99058
411.656	52.24794
412.106	52.32121
412.556	51.87943
413.006	52.81051
413.456	51.64517
413.905	51.15907
414.355	51.64608
414.805	50.96842
415.254	51.0225
415.704	50.86768
416.153	50.62204
416.603	50.8086
417.052	50.25866
417.502	50.92118
417.951	49.98325
418.4	49.86963
418.849	49.72262
419.298	49.59938
419.748	49.76813
420.197	49.59964
420.646	49.16869
421.094	49.17817
421.543	49.58434
421.992	48.75944
422.441	49.20963
422.89	48.57638
423.338	48.06563
423.787	48.40495
424.236	48.23657
424.684	47.89047
425.133	47.96004
425.581	47.96462
426.029	47.9441
426.478	47.67011
426.926	47.29262
427.374	48.11808
427.822	48.25359
428.27	47.32747
428.718	46.9364
429.166	47.29912
429.614	47.18247
430.062	47.36855
430.51	46.58325
430.958	47.02582
431.406	46.50169
431.853	46.61082
432.301	46.50083
432.749	46.53379
433.196	46.47332
433.644	45.99386
434.091	45.91726
434.538	46.0502
434.986	46.48683
435.433	46.42645
435.88	46.36708
436.327	46.3052
436.775	46.36916
437.222	45.56498
437.669	45.61605
438.116	45.60155
438.563	45.39692
439.009	45.63262
439.456	45.92123
439.903	45.60051
440.35	45.44229
440.796	45.43971
441.243	45.47073
441.689	45.30256
442.136	46.07601
442.582	44.903
443.029	45.30787
443.475	45.09163
443.921	44.93888
444.368	45.11895
444.814	45.30866
445.26	45.45126
445.706	45.33102
446.152	45.6882
446.598	45.7915
447.044	45.49651
447.49	45.79856
447.936	45.73259
448.381	45.42328
448.827	45.32145
449.273	45.47931
449.718	45.63216
450.164	45.53004
450.61	45.15029
451.055	45.79264
451.5	45.80736
451.946	45.68859
452.391	45.75326
452.836	46.00604
453.282	45.95088
453.727	45.87852
454.172	46.14595
454.617	46.16753
455.062	45.6995
455.507	46.00705
455.952	45.88685
456.396	46.24984
456.841	46.47636
457.286	46.65187
457.731	46.7159
458.175	46.5801
458.62	45.93468
459.064	46.50963
459.509	46.27644
459.953	46.3332
460.398	46.90793
460.842	46.81763
461.286	47.09764
461.73	47.22185
462.174	47.34875
462.619	47.54593
463.063	47.33844
463.507	47.4431
463.951	47.59357
464.394	47.80717
464.838	47.84016
465.282	48.20731
465.726	48.14773
466.17	48.24893
466.613	48.35923
467.057	48.26869
467.5	48.62751
467.944	48.70669
468.387	48.95381
468.831	49.17576
469.274	49.3191
469.717	49.62653
470.16	49.7857
470.603	49.90994
471.047	50.39439
471.49	51.00274
471.933	50.51437
472.376	50.80932
472.818	51.14211
473.261	51.32294
473.704	51.71217
474.147	51.27235
474.59	51.38995
475.032	51.62194
475.475	51.97511
475.917	51.80515
476.36	52.67258
476.802	52.73675
477.245	52.8506
477.687	52.69576
478.129	53.30285
478.571	53.37572
479.013	53.572
479.456	53.83335
479.898	54.21373
480.34	54.11417
480.782	54.08166
481.224	54.0508
481.665	54.48557
482.107	54.34671
482.549	54.6545
482.991	54.44153
483.432	54.52411
483.874	54.67184
484.315	55.02694
484.757	55.14471
485.198	55.30638
485.64	55.11941
486.081	55.44698
486.522	55.7076
486.963	55.5861
487.405	55.60694
487.846	56.29468
488.287	56.04794
488.728	56.06123
489.169	56.25285
489.61	56.82096
490.05	56.24156
490.491	56.48483
490.932	56.32247
491.373	56.11297
491.813	56.62623
492.254	56.80182
492.694	56.79207
493.135	56.64793
493.575	56.90517
494.016	56.58499
494.456	56.73264
494.896	56.96265
495.336	57.5514
495.777	57.69154
496.217	57.52539
496.657	58.05242
497.097	58.21062
497.537	58.17158
497.977	58.22421
498.416	58.03409
498.856	58.50331
499.296	58.0834
499.736	58.2743
500.175	57.77076
500.615	58.54348
501.054	58.54402
501.494	58.9219
501.933	58.76675
502.373	59.37135
502.812	59.48788
503.251	58.88889
503.69	59.32291
504.129	59.85325
504.569	59.74537
505.008	59.98521
505.447	59.81384
505.886	60.6467
506.324	60.43372
506.763	60.43157
507.202	61.23878
507.641	61.17852
508.079	61.48181
508.518	61.52971
508.957	61.93727
509.395	62.16877
509.834	62.08962
510.272	62.82912
510.71	62.93118
511.149	63.16461
511.587	63.56667
512.025	63.88555
512.463	63.72712
512.901	64.54985
513.339	64.40601
513.777	64.59204
514.215	63.62433
514.653	65.02438
515.091	65.00729
515.529	65.20585
515.966	65.28197
516.404	66.25414
516.842	65.90147
517.279	65.93001
517.717	66.6184
518.154	66.02744
518.592	66.65302
519.029	66.42038
519.466	66.80913
519.904	67.39328
520.341	67.1047
520.778	67.806
521.215	68.59881
521.652	68.37907
522.089	68.75423
522.526	69.02764
522.963	69.02866
523.399	69.28017
523.836	69.42777
524.273	69.93146
524.71	70.0194
525.146	70.65229
525.583	71.03762
526.019	70.32148
526.456	70.62809
526.892	71.53402
527.328	71.03791
527.765	71.68817
528.201	71.39278
528.637	72.20868
529.073	72.27819
529.509	72.52944
529.945	72.51363
530.381	72.97131
530.817	72.77942
531.253	72.69847
531.689	73.72899
532.124	73.08279
532.56	73.88234
532.996	73.73807
533.431	73.54457
533.867	73.79516
534.302	74.0802
534.738	74.23
535.173	74.6543
535.608	74.94894
536.044	74.52625
536.479	74.39764
536.914	74.71533
537.349	74.89648
537.784	74.71815
538.219	75.40103
538.654	75.04359
539.089	75.3987
539.524	74.42818
539.959	75.58213
540.393	75.46388
540.828	75.66598
541.263	75.80655
541.697	75.6836
542.132	76.3223
542.566	75.72532
543.001	76.19281
543.435	75.97626
543.869	75.76429
544.303	75.53586
544.738	76.33311
545.172	76.21487
545.606	75.99183
546.04	76.04441
546.474	76.91924
546.908	75.80324
547.342	76.00625
547.775	76.50072
548.209	76.41639
548.643	75.63976
549.077	76.68559
549.51	76.04611
549.944	76.36249
550.377	76.09883
550.811	75.5109
551.244	75.06701
551.677	75.36011
552.111	74.70905
552.544	75.1871
552.977	75.51384
553.41	74.553
553.843	75.05521
554.276	74.73324
554.709	74.09918
555.142	74.48801
555.575	73.84364
556.008	74.38723
556.44	73.47314
556.873	73.32624
557.306	73.12766
557.738	72.66191
558.171	72.93767
558.603	72.95094
559.036	72.58702
559.468	72.18146
559.9	72.59728
560.333	71.83207
560.765	71.38089
561.197	71.32993
561.629	71.03937
562.061	70.635
562.493	70.43188
562.925	70.09819
563.357	69.95411
563.789	69.40629
564.22	69.85062
564.652	69.35283
565.084	69.53212
565.515	69.02623
565.947	68.3258
566.378	67.88363
566.81	67.97526
567.241	67.86908
567.672	67.87476
568.104	67.8273
568.535	67.38661
568.966	67.14117
569.397	66.83879
569.828	66.89755
570.259	66.23165
570.69	65.79559
571.121	65.59792
571.552	65.4877
571.983	64.63954
572.414	65.27168
572.844	64.93416
573.275	64.58257
573.705	64.75219
574.136	63.59299
574.566	64.3273
574.997	64.37198
575.427	63.63433
575.857	63.57413
576.288	63.28947
576.718	63.243
577.148	62.8186
577.578	62.56136
578.008	62.36108
578.438	61.92965
578.868	61.76356
579.298	61.49562
579.728	60.96038
580.157	60.38652
580.587	60.068
581.017	59.7083
581.446	59.79956
581.876	59.22356
582.305	59.19571
582.735	58.71149
583.164	58.66438
583.593	58.42936
584.023	58.28652
584.452	58.02351
584.881	57.82657
585.31	57.69893
585.739	57.76982
586.168	57.57446
586.597	57.38604
587.026	57.04009
587.455	57.52213
587.884	57.14013
588.312	56.97199
588.741	56.594
589.17	56.48578
589.598	56.34669
590.027	56.30776
590.455	55.91386
590.884	55.89655
591.312	55.41076
591.74	55.61929
592.168	54.89446
592.597	54.60153
593.025	54.83007
593.453	54.40374
593.881	53.83287
594.309	53.5873
594.737	53.22956
595.165	53.28236
595.592	53.33476
596.02	53.53849
596.448	52.87049
596.875	52.61187
597.303	52.69164
597.73	52.56437
598.158	51.66857
598.585	52.13762
599.013	51.37967
599.44	51.51146
599.867	51.45921
600.294	51.5631
600.722	51.4394
601.149	51.61197
601.576	51.05117
602.003	51.24458
602.43	51.09503
602.856	50.80906
603.283	51.23417
603.71	50.84401
604.137	50.13074
604.563	50.24666
604.99	49.87986
605.416	49.73358
605.843	49.6615
606.269	49.68722
606.696	49.59972
607.122	49.34106
607.548	49.32441
607.975	49.33721
608.401	49.5296
608.827	49.2148
609.253	48.92919
609.679	48.924
610.105	48.24278
610.531	48.47597
610.956	48.31531
611.382	48.16707
611.808	48.30358
612.234	48.33526
612.659	48.09349
613.085	48.1262
613.51	48.00518
613.936	48.18235
614.361	47.57358
614.786	47.89194
615.212	47.17712
615.637	47.50966
616.062	47.19989
616.487	47.14429
616.912	47.69585
617.337	47.34091
617.762	47.43774
618.187	47.17271
618.612	47.3665
619.037	47.06065
619.461	46.98811
619.886	46.79702
620.311	46.9146
620.735	47.14518
621.16	46.92119
621.584	46.70935
622.008	46.79859
622.433	46.94054
622.857	46.82396
623.281	46.7619
623.705	46.62861
624.13	46.55399
624.554	46.84277
624.978	46.43586
625.402	46.70528
625.826	46.72099
626.249	46.46302
626.673	46.5074
627.097	46.68134
627.521	46.44354
627.944	46.58038
628.368	46.53184
628.791	46.54375
629.215	46.67648
629.638	46.79884
630.061	46.81989
630.485	46.83996
630.908	46.83595
631.331	46.81229
631.754	46.87733
632.177	47.06817
632.6	46.73327
633.023	46.83915
633.446	47.35875
633.869	47.36622
634.292	47.64674
634.715	47.58674
635.137	47.535
635.56	47.81982
635.982	48.17333
636.405	47.90426
636.827	48.19993
637.25	48.04109
637.672	48.2376
638.094	48.37746
638.517	48.28851
638.939	48.32318
639.361	48.9228
639.783	49.05209
640.205	49.53497
640.627	49.41076
641.049	49.45104
641.471	49.77045
641.893	49.54537
642.314	49.72265
642.736	49.85215
643.158	49.80059
643.579	50.39177
644.001	49.62901
644.422	49.66616
644.844	50.19783
645.265	50.25453
645.686	50.27035
646.107	50.23844
646.529	50.47313
646.95	50.59488
647.371	51.11475
647.792	50.99962
648.213	51.30673
648.634	51.62353
649.055	51.46021
649.475	51.88674
649.896	51.96097
650.317	51.92175
650.737	52.18353
651.158	52.47588
651.578	52.51843
651.999	53.01178
652.419	52.39044
652.84	53.1479
653.26	53.32949
653.68	53.60652
654.1	53.8264
654.521	54.05009
654.941	53.35802
655.361	54.30257
655.781	54.18986
656.2	54.64896
656.62	54.98832
657.04	55.65447
657.46	54.81236
657.879	55.42491
658.299	55.51893
658.719	55.60472
659.138	55.60893
659.558	56.51788
659.977	56.36588
660.396	56.55734
660.816	56.78547
661.235	57.10732
661.654	56.52785
662.073	57.24511
662.492	57.50855
662.911	57.43131
663.33	57.31594
663.749	57.24
664.168	57.60935
664.587	57.85962
665.006	58.19395
665.424	58.55921
665.843	58.28831
666.261	58.41285
666.68	58.43275
667.098	58.99254
667.517	58.9112
667.935	58.81039
668.353	58.90965
668.772	59.44824
669.19	59.1308
669.608	59.91832
670.026	59.73939
670.444	59.89597
670.862	59.89254
671.28	59.723
671.698	59.48694
672.115	60.03252
672.533	59.76134
672.951	59.85172
673.368	60.42769
673.786	59.77342
674.203	60.12579
674.621	59.64051
675.038	59.73073
675.456	60.27649
675.873	59.46688
676.29	59.64653
676.707	59.63832
677.124	59.45842
677.541	59.53066
677.958	59.0103
678.375	59.75743
678.792	59.06983
679.209	59.03535
679.626	59.72289
680.043	59.92183
680.459	60.16706
680.876	59.82201
681.292	59.8563
681.709	59.50876
682.125	59.60277
682.542	59.19296
682.958	58.56128
683.374	59.33672
683.79	58.79951
684.207	59.22995
684.623	59.16059
685.039	59.22739
685.455	58.89926
685.871	58.67398
686.286	58.4564
686.702	58.23878
687.118	58.26363
687.534	58.49793
687.949	58.29461
688.365	58.51625
688.781	57.53866
689.196	57.43917
689.611	57.24333
690.027	57.83677
690.442	57.03217
690.857	56.94208
691.273	56.46683
691.688	56.43876
692.103	56.67922
692.518	55.98681
692.933	56.41604
693.348	55.57457
693.763	56.23134
694.177	55.31369
694.592	55.35105
695.007	55.16308
695.421	54.8891
695.836	54.98107
696.25	53.83868
696.665	53.93512
697.079	54.29294
697.494	53.52494
697.908	53.14525
698.322	53.77282
698.736	53.11988
699.151	53.15125
699.565	52.51835
699.979	52.42242
700.393	51.91057
700.806	52.11459
701.22	51.85759
701.634	51.54967
702.048	51.62725
702.461	51.39853
702.875	50.72239
703.289	50.59422
703.702	50.31584
704.116	49.83609
704.529	49.73509
704.942	49.06647
705.356	49.38007
705.769	48.96581
706.182	48.5064
706.595	48.03509
707.008	47.83095
707.421	47.52555
707.834	47.40231
708.247	46.97192
708.66	46.83108
709.072	46.76032
709.485	45.61921
709.898	46.18744
710.31	45.55969
710.723	45.92175
711.135	44.8871
711.548	44.93604
711.96	44.03074
712.373	44.40182
712.785	43.84201
713.197	43.92082
713.609	43.69705
714.021	43.27693
714.433	42.50722
714.845	42.65137
715.257	42.35908
715.669	42.07757
716.081	41.78401
716.493	41.6835
716.904	41.25845
717.316	40.78004
717.727	40.69571
718.139	40.04923
718.55	40.34485
718.962	39.68614
719.373	39.49942
719.784	39.04944
720.196	39.48712
720.607	38.87423
721.018	38.72858
721.429	38.61484
721.84	38.61994
722.251	37.80388
722.662	37.57357
723.073	37.49436
723.483	37.52422
723.894	36.64815
724.305	36.63423
724.715	36.47401
725.126	36.22807
725.536	35.73923
725.947	35.78068
726.357	35.28283
726.768	35.0595
727.178	34.86621
727.588	34.70895
727.998	34.81457
728.408	34.4693
728.818	34.46321
729.228	34.04861
729.638	33.99059
730.048	33.53448
730.458	33.54653
730.868	33.42966
731.277	33.16542
731.687	32.78658
732.097	33.02998
732.506	32.50017
732.916	32.57592
733.325	32.0705
733.734	32.07608
734.144	31.43918
734.553	31.60914
734.962	31.29147
735.371	31.04867
735.78	30.4002
736.189	30.75651
736.598	30.26617
737.007	30.82261
737.416	30.06393
737.825	30.41046
738.233	29.58726
738.642	30.27047
739.051	29.89467
739.459	29.74253
739.868	29.55076
740.276	29.69887
740.684	29.40228
741.093	28.86767
741.501	29.25795
741.909	28.55321
742.317	28.90562
742.725	27.98155
743.133	28.62388
743.541	28.1403
743.949	28.29052
744.357	27.73604
744.765	28.26033
745.173	27.51446
745.58	27.92854
745.988	26.87781
746.396	27.52814
746.803	26.64022
747.211	27.27896
747.618	26.6369
748.025	26.80021
748.433	26.71808
748.84	26.60286
749.247	27.00641
749.654	26.08886
750.061	26.7944
750.468	26.1957
750.875	26.8228
751.282	26.35969
751.689	26.64517
752.096	26.05029
752.502	26.33439
752.909	26.01783
753.316	25.84482
753.722	26.25716
754.129	25.505
754.535	25.8876
754.941	25.48009
755.348	25.81004
755.754	25.34122
756.16	25.78806
756.566	25.38796
756.972	25.20995
757.378	25.08087
757.784	24.84166
758.19	25.51858
758.596	24.7204
759.002	25.48778
759.408	24.71486
759.813	25.08274
760.219	24.84338
760.624	24.71225
761.03	24.47759
761.435	24.83613
761.841	24.33789
762.246	24.12352
762.651	24.26529
763.057	23.93155
763.462	24.88665
763.867	24.25085
764.272	24.96574
764.677	24.46631
765.082	24.77243
765.487	24.82569
765.892	24.61708
766.296	24.57926
766.701	24.00577
767.106	24.73781
767.51	23.84681
767.915	24.54614
768.319	23.98661
768.724	23.98444
769.128	23.82274
769.532	23.62295
769.936	24.21035
770.341	23.50916
770.745	23.62278
771.149	23.19342
771.553	23.67129
771.957	23.94012
772.361	23.27249
772.764	23.68726
773.168	23.01979
773.572	23.37608
773.976	23.33408
774.379	23.48492
774.783	23.35517
775.186	23.20501
775.59	23.68395
775.993	22.75502
776.396	23.39904
776.8	22.98619
777.203	23.73827
777.606	23.27036
778.009	22.80475
778.412	23.18812
778.815	22.86495
779.218	23.58935
779.621	23.21035
780.023	23.73571
780.426	23.68757
780.829	23.58817
781.231	23.8489
781.634	23.21045
782.036	23.48101
782.439	23.18026
782.841	23.28471
783.244	23.91966
783.646	22.88034
784.048	23.3603
784.45	23.31793
784.852	23.38819
785.254	23.12021
785.656	23.25216
786.058	23.66012
786.46	22.91749
786.862	23.4366
787.264	22.79413
787.665	22.98885
788.067	23.38206
788.468	22.80426
788.87	23.44897
789.271	22.77005
789.673	23.45164
790.074	23.57731
790.475	23.13652
790.877	23.32038
791.278	23.51106
791.679	23.1306
792.08	22.83688
792.481	23.35817
792.882	23.15811
793.283	22.70433
793.683	23.46422
794.084	22.96378
794.485	22.97658
794.886	23.20984
795.286	22.41663
795.687	22.83003
796.087	22.76933
796.487	23.06433
796.888	23.09999
797.288	22.53024
797.688	23.09759
798.088	23.09571
798.489	22.90461
798.889	23.12834
799.289	22.72421
799.689	23.03244
800.088	23.023
800.488	22.57799
800.888	22.83058
801.288	22.91568
801.687	23.49671
802.087	22.86902
802.486	23.35553
802.886	23.76693
803.285	23.22003
803.685	24.28924
804.084	23.50213
804.483	24.06794
804.882	24.10899
805.281	23.39461
805.68	23.87468
806.079	23.95661
806.478	23.39236
806.877	24.11238
807.276	23.178
807.675	24.04172
808.074	23.59234
808.472	23.48887
808.871	24.07084
809.269	23.91274
809.668	24.01855
810.066	24.08279
810.465	23.79614
810.863	24.26798
811.261	24.14755
811.659	24.37607
812.057	23.89251
812.455	23.48173
812.853	24.42492
813.251	24.00515
813.649	23.68462
814.047	24.36878
814.445	23.56211
814.843	23.71001
815.24	23.9929
815.638	23.71251
816.035	23.95852
816.433	23.54209
816.83	24.17555
817.228	24.04312
817.625	23.50529
818.022	24.16863
818.419	23.7896
818.816	23.46051
819.213	24.25047
819.61	23.9073
820.007	24.36502
820.404	24.59
820.801	24.17181
821.198	25.01013
821.595	24.7385
821.991	24.51849
822.388	25.25136
822.784	24.85253
823.181	25.16326
823.577	25.60731
823.974	25.20205
824.37	25.49941
824.766	25.2403
825.162	24.7455
825.558	25.25924
825.954	24.57827
826.35	24.74626
826.746	25.56029
827.142	25.05767
827.538	25.32404
827.934	25.52121
828.33	25.35446
828.725	25.52072
829.121	25.31769
829.516	25.167
829.912	24.97189
830.307	24.57076
830.703	25.06443
831.098	24.85143
831.493	24.59666
831.888	24.97575
832.283	24.8392
832.678	24.52335
833.073	25.2606
833.468	24.94811
833.863	25.51397
834.258	25.6782
834.653	25.07508
835.048	25.51464
835.442	25.47658
835.837	24.84756
836.231	25.78768
836.626	25.86133
837.02	25.25251
837.415	25.52572
837.809	25.53754
838.203	25.57394
838.597	25.80035
838.991	24.6019
839.385	24.98776
839.779	25.74908
840.173	24.69655
840.567	25.58271
840.961	25.81007
841.355	25.00704
841.748	25.55489
842.142	25.81753
842.536	25.21879
842.929	26.08042
843.323	25.87105
843.716	26.07495
844.109	26.03743
844.503	25.73001
844.896	25.69226
845.289	25.94694
845.682	26.28804
846.075	26.26901
846.468	25.97351
846.861	25.79855
847.254	26.41073
847.647	25.84758
848.04	25.97395
848.432	25.73766
848.825	25.73212
849.217	26.10321
849.61	26.57348
850.002	25.70362
850.395	25.57009
850.787	25.86908
851.179	25.48851
851.572	25.90109
851.964	26.03045
852.356	25.72282
852.748	25.81578
853.14	26.8835
853.532	25.88753
853.924	26.11874
854.315	25.819
854.707	26.28069
855.099	25.65539
855.491	26.83182
855.882	25.72761
856.274	26.73159
856.665	26.21571
857.056	25.76925
857.448	25.24202
857.839	26.19876
858.23	25.79912
858.621	26.2971
859.012	26.04635
859.403	25.09396
859.794	25.9946
860.185	26.53012
860.576	25.66789
860.967	25.70526
861.358	26.22857
861.748	25.18667
862.139	25.13957
862.529	25.83251
862.92	25.34475
863.31	26.21063
863.701	26.25094
864.091	24.52081
864.481	25.37756
864.872	25.72503
865.262	25.16749
865.652	26.01774
866.042	26.49723
866.432	24.7672
866.822	26.44914
867.211	25.46667
867.601	25.22319
867.991	25.43777
868.381	25.21986
868.77	24.26698
869.16	25.53699
869.549	25.14046
869.939	25.02647
870.328	25.04597
870.717	25.31414
871.106	24.87955
871.496	25.2942
871.885	24.93718
872.274	24.28843
872.663	24.85711
873.052	25.35806
873.441	25.28709
873.829	25.215
874.218	25.24921
874.607	25.06654
874.996	25.45627
875.384	25.25438
875.773	24.14644
876.161	25.34733
876.549	25.70211
876.938	25.3627
877.326	25.25898
877.714	25.33465
878.102	24.74436
878.491	24.42282
878.879	25.35516
879.267	24.57556
879.655	24.76113
880.042	25.68704
880.43	25.27481
880.818	24.79004
881.206	25.53503
881.593	25.61416
881.981	25.17672
882.368	25.38394
882.756	25.82095
883.143	25.0849
883.53	25.32933
883.918	25.74165
884.305	25.2274
884.692	25.16729
885.079	25.55798
885.466	24.84014
885.853	25.22893
886.24	25.49635
886.627	24.76253
887.014	24.87463
887.4	25.58028
887.787	25.15182
888.174	24.61488
888.56	25.13673
888.947	24.88232
889.333	24.88595
889.719	25.07975
890.106	24.81739
890.492	24.94901
890.878	24.80377
891.264	24.90128
891.65	24.73727
892.036	24.91748
892.422	24.78536
892.808	24.64622
893.194	24.37278
893.58	24.62722
893.965	24.38104
894.351	24.37848
894.736	24.33514
895.122	24.18721
895.507	24.15792
895.893	24.83348
896.278	24.79411
896.663	24.53309
897.049	24.63676
897.434	24.68708
897.819	24.68446
898.204	24.82609
898.589	25.48151
898.974	24.85916
899.359	24.336
899.743	25.4805
900.128	24.97163
900.513	24.3211
900.897	25.03363
901.282	24.52831
901.667	23.80483
902.051	23.70632
902.435	24.52163
902.82	23.72867
903.204	23.93138
903.588	24.48413
903.972	24.49029
904.356	24.36113
904.74	24.35943
905.124	24.5449
905.508	25.02126
905.892	24.31663
906.276	25.24866
906.659	24.65817
907.043	24.5799
907.427	24.75141
907.81	24.98143
908.194	24.74787
908.577	24.49518
908.96	24.8821
909.344	24.88847
909.727	23.77448
910.11	24.93847
910.493	24.2494
910.876	24.15583
911.259	24.0639
911.642	23.78044
912.025	23.18159
912.408	23.62011
912.79	24.04422
913.173	23.08986
913.556	23.30961
913.938	23.86351
914.321	23.55842
914.703	23.13597
915.086	23.36603
915.468	24.03234
915.85	23.46792
916.232	23.29908
916.614	23.65856
916.996	24.44452
917.378	23.43531
917.76	23.4682
918.142	24.27402
918.524	24.58776
918.906	23.78073
919.288	24.36558
919.669	24.73723
920.051	24.14453
920.432	24.23384
920.814	24.31921
921.195	24.6571
921.577	24.15865
921.958	24.62884
922.339	24.35029
922.72	23.58759
923.101	24.33747
923.482	25.37124
923.863	24.44664
924.244	24.1202
924.625	24.26137
925.006	24.78487
925.387	24.97046
925.767	24.52313
926.148	25.74742
926.528	24.11157
926.909	23.41386
927.289	25.24682
927.67	24.37835
928.05	22.96532
928.43	24.58891
928.81	24.35857
929.191	24.59435
929.571	23.76365
929.951	22.53398
930.331	24.74955
930.71	22.72012
931.09	23.75848
931.47	24.54952
931.85	24.06303
932.229	24.34485
932.609	24.46626
932.988	25.05401
933.368	23.80427
933.747	23.74224
934.127	24.51619
934.506	24.24779
934.885	23.75019
935.264	25.12187
935.643	23.28333
936.022	24.75968
936.401	25.208
936.78	23.8009
937.159	24.45853
937.538	24.03953
937.916	23.37467
938.295	24.20615
938.674	23.18901
939.052	23.40098
939.431	23.69491
939.809	24.54463
940.187	23.53194
940.566	22.01437
940.944	23.67089
941.322	23.01844
941.7	23.43496
942.078	24.28416
942.456	23.70536
942.834	23.49592
943.212	24.26881
943.59	24.52033
943.968	23.22835
944.345	23.84125
944.723	24.13294
945.1	24.84924
945.478	23.46806
945.855	24.0513
946.233	24.50871
946.61	23.6062
946.987	23.84229
947.365	23.77953
947.742	24.30146
948.119	21.75046
948.496	23.0517
948.873	23.52376
949.25	24.51193
949.626	24.13469
950.003	23.73332
950.38	24.33514
950.756	23.52571
951.133	26.55831
951.51	25.01192
951.886	23.7321
952.262	23.31808
952.639	24.51608
953.015	23.82018
953.391	24.35413
953.767	23.80601
954.143	22.17288
954.519	24.49495
954.895	24.85277
955.271	24.22758
955.647	22.15953
956.023	23.52519
956.399	23.95582
956.774	24.26167
957.15	24.46166
957.525	22.87322
957.901	22.78737
958.276	21.65527
958.652	22.24913
959.027	25.73591
959.402	22.59072
959.777	22.48845
960.152	25.25718
960.527	24.12936
960.902	22.81823
961.277	21.1768
961.652	21.37777
962.027	23.37073
962.402	21.90583
962.776	23.98776
963.151	18.26224
963.525	24.12155
963.9	22.78227
964.274	22.89822
964.649	21.68024
965.023	23.75922
965.397	23.9577
965.771	21.09751
966.146	21.55164
966.52	20.64472
966.894	22.37922
967.268	21.57906
967.641	21.9103
968.015	21.61765
968.389	22.58994
968.763	20.95486
969.136	22.57991
969.51	22.80618
969.883	20.69285
970.257	22.23367
970.63	22.9445
971.003	22.72282
971.377	22.4273
971.75	21.67374
972.123	21.36977
972.496	23.15982
972.869	22.02525
973.242	21.86421
973.615	22.43828
973.988	22.66696
974.36	22.93674
974.733	22.79498
975.106	21.74868
975.478	22.99496
975.851	21.92543
976.223	20.77302
976.596	21.08779
976.968	22.12509
977.34	21.67818
977.712	21.20028
978.085	20.2025
978.457	20.62868
978.829	21.16883
979.201	20.8468
979.573	19.85057
979.944	21.48268
980.316	20.87102
980.688	21.66349
981.059	21.38081
981.431	22.11215
981.803	20.03797
982.174	23.27058
982.545	21.38994
982.917	22.1299
983.288	21.93177
983.659	20.3041
984.03	21.08014
984.401	20.7691
984.772	22.31572
985.143	23.90188
985.514	21.49324
985.885	21.8259
986.256	22.30662
986.627	20.12317
986.997	20.74711
987.368	20.55963
987.738	19.162
988.109	21.80024
988.479	20.4686
988.85	21.22754
989.22	21.28038
989.59	20.39842
989.96	20.18915
990.33	21.00702
990.7	19.96406
991.07	19.82326
991.44	19.73857
991.81	19.78493
992.18	20.58082
992.549	21.58079
992.919	19.0147
993.289	20.13934
993.658	18.08502
994.028	21.53632
994.397	21.67177
994.766	19.47503
995.136	19.33866
995.505	21.7434
995.874	18.31616
996.243	20.66763
996.612	19.87103
996.981	20.14613
997.35	20.86729
997.719	21.70681
998.088	21.38969
998.456	22.87528
998.825	21.62737
999.194	22.55329
999.562	20.24695
999.931	23.76301
1000.299	18.54031
1000.667	17.79238
1001.036	21.61991
1001.404	22.81878
1001.772	19.64399
1002.14	24.37273
1002.508	22.64922
1002.876	25.456
1003.244	21.75999
1003.612	21.57165
1003.98	16.12696
1004.347	18.3216
1004.715	21.79457
1005.083	22.30325
1005.45	20.4511
1005.818	22.19602
1006.185	19.99414
1006.552	17.97189
1006.92	19.37327
1007.287	18.49065
1007.654	21.17341
1008.021	22.19868
1008.388	21.20695
1008.755	21.22433
1009.122	19.52935
1009.489	20.56722
1009.856	18.45728
1010.222	19.83415
1010.589	20.22479
1010.956	21.67056
1011.322	21.67635
1011.689	19.54698
1012.055	21.12106
1012.421	22.57147
1012.788	20.77116
1013.154	19.63506
1013.52	21.34753
1013.886	20.02291
1014.252	20.91351
1014.618	18.85856
1014.984	20.86238
1015.35	17.92371
1015.716	18.43226
1016.081	21.1999
1016.447	22.40202
1016.813	22.60306
1017.178	20.4832
1017.544	25.08706
1017.909	21.20236
1018.274	21.62344
1018.64	22.50663
1019.005	26.1114
1019.37	21.5128
1019.735	20.51171
1020.1	16.88731
1020.465	15.1841
1020.83	20.54464
1021.195	23.23962
1021.56	27.52371
1021.924	19.02107
1022.289	15.80623
1022.654	23.13463
1023.018	21.92677
1023.383	22.94847
1023.747	24.9774
1024.111	22.85457
1024.476	18.93632
1024.84	19.45609
1025.204	23.33344
1025.568	25.54839
1025.932	25.95285
1026.296	22.50402
1026.66	27.47957
1027.024	19.37265
1027.387	24.98328
1027.751	23.22958
1028.115	21.47606
1028.478	23.45048
1028.842	18.57108
1029.205	23.7225
1029.569	16.92151
1029.932	28.49351
1030.295	16.73114
1030.659	27.81339
1031.022	22.72421
1031.385	24.36947
1031.748	22.80325
1032.111	18.89332
1032.474	23.19562
1032.836	18.00124
1033.199	30.78791
1033.562	14.19884
1033.924	29.69985
1034.287	32.59844
1034.65	22.10125
1035.012	19.03674
1035.374	19.69103
1035.737	30.56732
1036.099	26.49961
1036.461	27.71315
1036.823	7.58219
1037.185	23.46162
1037.547	25.83383
1037.909	12.9718
1038.271	18.59434
1038.633	18.20769
1038.995	28.59874
1039.356	29.04199
1039.718	30.39303
1040.08	23.32272
1040.441	30.02196
1040.803	22.63233
1041.164	16.84225
1041.525	15.11288
1041.886	23.228
1042.248	24.98886
1042.609	24.59997
1042.97	38.20119
1043.331	25.45107
1043.692	32.93877
1044.053	41.65569
1044.413	35.02792
1044.774	33.32157
1045.135	4.71034
1045.495	34.5726
1045.856	27.44293
1046.216	26.25503
1046.577	19.61948
1046.937	10.24016
1047.298	38.98055
