Data from 1015water_Reflection__6__16-51-15-721.txt Node

Date: Wed Oct 15 16:51:15 AST 2025
User: lin
Spectrometer: SR600411
Trigger mode: 0
Integration Time (sec): 5.819800E-2
Scans to average: 5
Nonlinearity correction enabled: true
Boxcar width: 0
Storing dark spectrum: false
XAxis mode: Wavelengths
Number of Pixels in Spectrum: 2048
>>>>>Begin Spectral Data<<<<<
187.982	56.39694
188.456	47.58806
188.93	58.48584
189.403	50.13068
189.877	54.83481
190.351	71.07645
190.825	47.65644
191.298	55.42463
191.772	57.31057
192.246	57.13231
192.719	54.01803
193.193	59.59621
193.666	73.80308
194.139	52.40304
194.613	52.25748
195.086	51.18833
195.559	60.99605
196.033	56.87682
196.506	67.47733
196.979	59.09386
197.452	57.23756
197.925	63.22116
198.398	63.48164
198.871	59.6423
199.344	59.3597
199.816	59.86586
200.289	53.73079
200.762	64.59152
201.235	45.33198
201.707	62.32146
202.18	44.7516
202.652	52.87433
203.125	49.42308
203.597	47.19701
204.07	35.37872
204.542	74.72421
205.014	79.32845
205.486	39.46468
205.959	35.75471
206.431	54.81266
206.903	50.63328
207.375	63.94562
207.847	58.74855
208.319	54.02932
208.791	42.76616
209.263	60.75576
209.734	14.40389
210.206	79.99619
210.678	20.99671
211.15	73.62287
211.621	67.99568
212.093	45.1552
212.564	56.02881
213.036	43.6452
213.507	76.91941
213.979	62.68034
214.45	68.2115
214.921	54.66942
215.392	89.58156
215.864	45.29339
216.335	81.81493
216.806	109.33485
217.277	46.02553
217.748	74.18883
218.219	42.94577
218.69	42.20033
219.161	78.25776
219.631	51.12122
220.102	48.90848
220.573	63.50671
221.043	29.12865
221.514	67.41185
221.985	64.28252
222.455	45.49686
222.926	47.05462
223.396	42.58735
223.866	46.71528
224.337	42.44768
224.807	55.73173
225.277	82.21961
225.747	41.48483
226.217	65.78438
226.687	36.42817
227.157	57.71762
227.627	36.75843
228.097	50.67769
228.567	25.65943
229.037	53.5659
229.507	48.59282
229.977	33.5601
230.446	54.19202
230.916	48.1428
231.386	75.25415
231.855	48.64315
232.325	56.24687
232.794	70.53109
233.263	31.66151
233.733	14.92368
234.202	76.52712
234.671	49.08545
235.14	87.34004
235.61	53.96204
236.079	70.52239
236.548	47.75456
237.017	57.54203
237.486	57.99516
237.955	125.00273
238.424	59.58206
238.892	49.37869
239.361	70.63771
239.83	37.92697
240.299	87.75301
240.767	81.07883
241.236	22.8302
241.704	59.48989
242.173	80.76683
242.641	51.32183
243.109	58.66305
243.578	44.67393
244.046	81.10837
244.514	38.27524
244.982	52.77243
245.451	71.14961
245.919	58.09016
246.387	25.40524
246.855	67.91994
247.323	69.99625
247.791	70.0806
248.258	48.77642
248.726	53.27266
249.194	53.16065
249.662	73.8063
250.129	69.08624
250.597	26.31359
251.064	61.03532
251.532	86.31356
251.999	66.34154
252.467	63.41086
252.934	49.23587
253.401	47.05547
253.869	52.62499
254.336	39.99476
254.803	53.39298
255.27	39.28041
255.737	78.12283
256.204	62.38024
256.671	84.4421
257.138	12.49861
257.605	66.34154
258.072	72.21792
258.539	50.58402
259.005	76.03819
259.472	30.83659
259.939	39.99499
260.405	81.94233
260.872	53.46036
261.338	35.2918
261.805	53.69837
262.271	67.22168
262.737	44.18183
263.203	57.62426
263.67	6.34846
264.136	58.69122
264.602	61.01138
265.068	46.77113
265.534	62.99537
266	31.02955
266.466	64.44035
266.932	35.06145
267.398	36.74674
267.864	49.49004
268.329	59.17897
268.795	41.40937
269.261	78.42795
269.726	48.53858
270.192	18.91666
270.657	76.91987
271.123	68.81324
271.588	66.66097
272.053	69.44141
272.519	71.18163
272.984	13.33058
273.449	64.64991
273.914	39.55612
274.379	44.33442
274.844	49.99464
275.309	49.56684
275.774	48.34714
276.239	48.83294
276.704	55.45635
277.169	64.83104
277.634	72.40919
278.098	43.52526
278.563	26.0246
279.028	-14.2839
279.492	26.39518
279.957	31.94134
280.421	33.60115
280.886	5.19405
281.35	28.42725
281.814	34.56426
282.279	67.08514
282.743	45.77904
283.207	98.57123
283.671	51.99628
284.135	49.99454
284.599	54.94058
285.063	61.8156
285.527	59.61041
285.991	64.40141
286.455	70.58473
286.919	38.92512
287.382	39.12608
287.846	45.9423
288.31	35.82786
288.773	44.44135
289.237	67.36427
289.7	61.8156
290.164	41.92949
290.627	78.56862
291.09	58.74615
291.554	55.99511
292.017	37.03329
292.48	33.63148
292.943	7.79111
293.406	20.38503
293.869	42.30517
294.332	64.5119
294.795	55.11187
295.258	92.30659
295.721	45.64538
296.184	41.23244
296.646	19.82392
297.109	33.32883
297.572	42.04119
298.034	56.40645
298.497	49.99682
298.959	33.3287
299.422	71.997
299.884	31.50372
300.346	1.78552
300.809	79.26562
301.271	64.63042
301.733	67.58789
302.195	74.41536
302.657	62.74036
303.119	57.46704
303.581	57.57256
304.043	36.43525
304.505	32.20083
304.967	53.84295
305.429	24.71581
305.891	46.42442
306.352	72.64495
306.814	84.92965
307.275	50.55738
307.737	59.56997
308.198	51.08809
308.66	77.44744
309.121	89.68894
309.583	86.53726
310.044	60.31147
310.505	59.13532
310.966	64.76874
311.428	30.37643
311.889	44.5495
312.35	117.2437
312.811	16.89943
313.272	35.57219
313.733	26.99609
314.193	-655.73055
314.654	45.82978
315.115	43.20593
315.576	36.62901
316.036	38.70676
316.497	46.87342
316.957	31.47917
317.418	-25.45106
317.878	26.38611
318.339	87.65258
318.799	16.66468
319.259	44.5495
319.72	69.99583
320.18	34.82745
320.64	48.07177
321.1	44.04351
321.56	49.99642
322.02	30.48435
322.48	41.10679
322.94	57.40479
323.4	28.37539
323.86	28.3555
324.319	49.99504
324.779	68.41779
325.239	31.50372
325.698	83.83572
326.158	71.67686
326.617	60.82016
327.077	47.12213
327.536	43.01907
327.996	4.44406
328.455	53.60346
328.914	47.94159
329.373	38.37919
329.832	52.43496
330.292	84.61404
330.751	51.24603
331.21	38.99528
331.668	72.93785
332.127	63.21437
332.586	88.76228
333.045	43.74531
333.504	57.37113
333.962	36.83947
334.421	44.78695
334.88	66.66495
335.338	34.94681
335.797	32.39128
336.255	63.63333
336.714	52.87947
337.172	71.08095
337.63	74.46453
338.088	77.49723
338.547	53.61978
339.005	38.2678
339.463	52.28818
339.921	58.75822
340.379	62.49553
340.837	55.55114
341.295	46.38696
341.753	20.68777
342.21	59.4011
342.668	67.70416
343.126	35.86536
343.584	41.66261
344.041	51.81273
344.499	98.61092
344.956	77.08165
345.414	61.37249
345.871	66.66415
346.328	47.31589
346.786	49.49994
347.243	42.25008
347.7	37.17587
348.157	69.1673
348.614	44.31387
349.071	69.50874
349.528	45.2778
349.985	53.53047
350.442	49.55191
350.899	32.55439
351.356	39.82489
351.812	58.13538
352.269	74.99717
352.726	66.15096
353.182	84.20852
353.639	98.07673
354.095	28.20042
354.552	61.60188
355.008	31.89155
355.465	49.5274
355.921	6.17191
356.377	41.66146
356.833	67.61449
357.289	70.089
357.745	57.54203
358.201	85.83044
358.657	49.99563
359.113	46.21262
359.569	70.80085
360.025	43.35732
360.481	90.4744
360.937	49.69912
361.392	47.96831
361.848	45.34039
362.303	36.86761
362.759	55.4955
363.214	47.91553
363.67	33.63995
364.125	32.80131
364.581	58.25785
365.036	42.73789
365.491	67.37929
365.946	60.30787
366.401	55.02621
366.856	55.77702
367.311	53.28008
367.766	55.40608
368.221	52.55979
368.676	62.98931
369.131	52.57571
369.586	55.44481
370.041	56.74703
370.495	53.5295
370.95	56.39956
371.404	55.20218
371.859	53.91568
372.313	56.16466
372.768	55.87162
373.222	52.24149
373.676	54.30592
374.131	56.02809
374.585	55.73476
375.039	56.26678
375.493	56.93907
375.947	55.50041
376.401	56.18501
376.855	55.02801
377.309	56.4308
377.763	57.397
378.217	57.00827
378.67	56.51136
379.124	52.49873
379.578	54.66217
380.031	55.15946
380.485	55.17291
380.938	54.95702
381.392	55.96848
381.845	54.99168
382.299	57.21138
382.752	54.04148
383.205	55.05958
383.658	54.19668
384.111	55.49572
384.564	55.6949
385.018	56.26454
385.471	54.97621
385.923	55.44953
386.376	54.62762
386.829	55.44888
387.282	55.52468
387.735	55.46446
388.187	56.23153
388.64	56.38375
389.093	56.65023
389.545	57.01792
389.998	56.01289
390.45	56.27242
390.902	55.55976
391.355	56.18744
391.807	56.44192
392.259	55.99006
392.711	55.80653
393.163	56.31824
393.615	56.26428
394.068	56.44375
394.519	56.27602
394.971	56.57387
395.423	56.59726
395.875	55.52238
396.327	56.02649
396.779	56.40118
397.23	55.57852
397.682	56.53379
398.133	55.13623
398.585	55.84083
399.036	55.71458
399.488	54.94437
399.939	55.20524
400.39	55.50126
400.842	56.12233
401.293	55.39956
401.744	55.16467
402.195	55.31958
402.646	54.47619
403.097	54.64886
403.548	55.10626
403.999	54.80163
404.45	54.36649
404.9	54.70223
405.351	54.74096
405.802	54.60058
406.253	53.9271
406.703	54.31222
407.154	53.93969
407.604	54.68546
408.055	53.82899
408.505	53.62462
408.955	53.62783
409.406	52.98335
409.856	52.93995
410.306	52.63696
410.756	53.21821
411.206	53.01233
411.656	52.81598
412.106	52.61824
412.556	51.73766
413.006	52.01604
413.456	51.7945
413.905	51.45752
414.355	50.88267
414.805	51.40911
415.254	51.1183
415.704	51.12618
416.153	51.04041
416.603	50.24504
417.052	50.81137
417.502	50.86184
417.951	50.21376
418.4	49.92038
418.849	49.81712
419.298	49.81203
419.748	49.30286
420.197	49.9149
420.646	49.18884
421.094	49.54859
421.543	49.47966
421.992	49.31535
422.441	48.97237
422.89	48.70202
423.338	49.08868
423.787	48.54243
424.236	48.42572
424.684	48.63034
425.133	47.82468
425.581	48.03891
426.029	47.84094
426.478	47.63503
426.926	47.37892
427.374	47.89943
427.822	47.24137
428.27	47.47712
428.718	46.82273
429.166	47.5019
429.614	47.02766
430.062	47.35277
430.51	46.51499
430.958	46.855
431.406	46.57268
431.853	46.4109
432.301	46.49778
432.749	46.02789
433.196	46.72675
433.644	46.2909
434.091	45.9762
434.538	45.91673
434.986	45.97033
435.433	46.00218
435.88	46.16896
436.327	46.71058
436.775	46.1049
437.222	45.54695
437.669	45.78888
438.116	45.92924
438.563	45.81191
439.009	45.73323
439.456	45.91637
439.903	46.01298
440.35	45.36802
440.796	45.11893
441.243	45.63181
441.689	45.51865
442.136	45.55772
442.582	45.70651
443.029	45.36519
443.475	45.27501
443.921	45.10652
444.368	44.92844
444.814	45.49333
445.26	45.72957
445.706	46.17351
446.152	45.68229
446.598	45.4705
447.044	45.71535
447.49	45.31437
447.936	45.57259
448.381	45.43141
448.827	45.72487
449.273	45.83893
449.718	45.61636
450.164	45.86746
450.61	45.56987
451.055	45.65413
451.5	45.85771
451.946	45.91413
452.391	45.81513
452.836	46.0854
453.282	45.71644
453.727	45.86536
454.172	45.75946
454.617	45.98488
455.062	45.72177
455.507	46.11824
455.952	46.5975
456.396	46.07998
456.841	46.23319
457.286	46.37205
457.731	46.38984
458.175	46.71999
458.62	46.38085
459.064	46.63345
459.509	46.30935
459.953	46.18144
460.398	46.91687
460.842	46.66462
461.286	47.03613
461.73	47.50573
462.174	47.41503
462.619	47.34967
463.063	47.43685
463.507	47.48289
463.951	47.76425
464.394	47.99707
464.838	47.939
465.282	47.84225
465.726	48.07695
466.17	48.3749
466.613	48.33007
467.057	48.29517
467.5	48.63032
467.944	48.67963
468.387	49.06998
468.831	49.23885
469.274	49.07862
469.717	50.02508
470.16	49.88811
470.603	49.91446
471.047	50.27496
471.49	50.67753
471.933	50.36442
472.376	51.01649
472.818	50.88887
473.261	51.47017
473.704	51.48607
474.147	51.61076
474.59	51.19727
475.032	51.68774
475.475	52.10158
475.917	51.70665
476.36	52.16629
476.802	52.48301
477.245	52.55184
477.687	53.07734
478.129	53.21234
478.571	53.00869
479.013	53.56334
479.456	53.81224
479.898	54.03938
480.34	53.92209
480.782	53.97492
481.224	54.1069
481.665	54.51948
482.107	54.3766
482.549	54.77278
482.991	54.6241
483.432	54.56571
483.874	54.62044
484.315	55.46992
484.757	54.98057
485.198	55.23526
485.64	55.30838
486.081	55.60189
486.522	56.17236
486.963	55.79222
487.405	55.95049
487.846	56.6389
488.287	56.19636
488.728	56.43833
489.169	56.21889
489.61	56.53945
490.05	56.30901
490.491	56.76172
490.932	56.41187
491.373	56.74644
491.813	56.90108
492.254	56.74884
492.694	56.95507
493.135	56.7759
493.575	56.93338
494.016	56.88585
494.456	56.81646
494.896	57.35223
495.336	57.96505
495.777	57.75548
496.217	57.53258
496.657	57.45846
497.097	58.17398
497.537	57.66123
497.977	58.15252
498.416	58.22954
498.856	58.16995
499.296	58.42199
499.736	58.07942
500.175	58.3684
500.615	58.84265
501.054	58.56972
501.494	59.07048
501.933	59.14117
502.373	59.17678
502.812	59.49884
503.251	59.0036
503.69	59.77531
504.129	59.7374
504.569	59.83347
505.008	60.46154
505.447	60.25703
505.886	60.30055
506.324	60.32212
506.763	60.5393
507.202	61.26074
507.641	61.35877
508.079	61.42195
508.518	61.87806
508.957	62.31305
509.395	62.20963
509.834	62.61928
510.272	63.0247
510.71	63.22984
511.149	63.2555
511.587	63.55096
512.025	63.68983
512.463	64.48185
512.901	63.92576
513.339	64.37522
513.777	64.99521
514.215	64.10655
514.653	64.5165
515.091	65.44843
515.529	65.03687
515.966	65.64104
516.404	66.0831
516.842	66.12141
517.279	66.26517
517.717	66.24721
518.154	66.27719
518.592	67.17515
519.029	66.9968
519.466	66.69204
519.904	67.26029
520.341	67.44292
520.778	67.90208
521.215	68.20673
521.652	68.8906
522.089	68.93955
522.526	68.95645
522.963	68.94694
523.399	69.66464
523.836	69.80968
524.273	70.02434
524.71	70.03488
525.146	70.42566
525.583	71.02825
526.019	70.67318
526.456	70.66352
526.892	71.78331
527.328	71.6935
527.765	71.60802
528.201	71.75931
528.637	72.42988
529.073	72.42005
529.509	72.87322
529.945	72.61693
530.381	73.14709
530.817	73.09598
531.253	73.2329
531.689	73.46633
532.124	72.93461
532.56	73.83365
532.996	73.60595
533.431	74.15186
533.867	73.63844
534.302	74.2258
534.738	74.23
535.173	74.74465
535.608	75.21542
536.044	74.92702
536.479	75.08274
536.914	74.87287
537.349	75.33864
537.784	74.81728
538.219	75.8273
538.654	75.33362
539.089	75.82243
539.524	74.84237
539.959	76.29042
540.393	75.45519
540.828	75.73616
541.263	75.95444
541.697	76.44931
542.132	76.50914
542.566	76.0652
543.001	76.09234
543.435	75.96551
543.869	76.65528
544.303	76.15873
544.738	75.91191
545.172	76.22208
545.606	76.50457
546.04	76.166
546.474	76.70536
546.908	75.80505
547.342	75.99719
547.775	76.06131
548.209	75.86908
548.643	75.71678
549.077	76.55758
549.51	76.4091
549.944	76.27862
550.377	76.41927
550.811	75.48079
551.244	75.63024
551.677	75.54633
552.111	75.17244
552.544	75.47626
552.977	75.6235
553.41	74.79911
553.843	75.30103
554.276	74.8199
554.709	73.95565
555.142	75.01953
555.575	74.26462
556.008	74.4249
556.44	73.88526
556.873	73.52624
557.306	73.4868
557.738	72.38323
558.171	73.4835
558.603	73.34985
559.036	72.98926
559.468	72.33762
559.9	72.31104
560.333	71.96985
560.765	72.05404
561.197	71.42844
561.629	71.48846
562.061	71.24552
562.493	70.36803
562.925	70.06374
563.357	70.18897
563.789	70.00606
564.22	70.17006
564.652	69.68075
565.084	69.42333
565.515	69.1155
565.947	67.93278
566.378	68.63053
566.81	68.54
567.241	68.14109
567.672	67.67403
568.104	68.00272
568.535	67.78798
568.966	67.44103
569.397	67.00757
569.828	66.80993
570.259	66.95171
570.69	66.01214
571.121	65.75523
571.552	65.93588
571.983	65.11221
572.414	65.05621
572.844	64.9118
573.275	64.72914
573.705	64.60255
574.136	64.4041
574.566	64.19835
574.997	64.21245
575.427	63.79894
575.857	63.84776
576.288	63.30824
576.718	63.00839
577.148	62.89763
577.578	62.84815
578.008	62.60583
578.438	62.42424
578.868	62.11207
579.298	61.83068
579.728	61.06362
580.157	60.79154
580.587	60.51549
581.017	60.0841
581.446	60.01077
581.876	59.59494
582.305	59.51969
582.735	59.09292
583.164	58.79613
583.593	58.48015
584.023	58.1955
584.452	58.09444
584.881	57.66698
585.31	57.89681
585.739	57.94115
586.168	57.79382
586.597	57.84838
587.026	57.51355
587.455	57.62183
587.884	57.24487
588.312	57.29008
588.741	56.71282
589.17	56.70611
589.598	56.74759
590.027	56.27753
590.455	56.11897
590.884	55.98095
591.312	55.7133
591.74	55.67361
592.168	55.12442
592.597	54.69808
593.025	54.99298
593.453	54.96017
593.881	54.111
594.309	53.96729
594.737	53.6252
595.165	53.37004
595.592	53.25735
596.02	53.16658
596.448	53.12939
596.875	52.68608
597.303	52.91815
597.73	52.54683
598.158	52.19774
598.585	51.78738
599.013	51.91277
599.44	51.69536
599.867	51.5664
600.294	51.08886
600.722	51.48303
601.149	51.41153
601.576	51.44165
602.003	51.41185
602.43	51.10455
602.856	50.98656
603.283	51.04798
603.71	50.76972
604.137	50.8266
604.563	50.33799
604.99	49.9603
605.416	50.16682
605.843	49.60743
606.269	49.46949
606.696	49.45384
607.122	49.06683
607.548	49.29786
607.975	49.36114
608.401	49.32898
608.827	49.23179
609.253	49.09697
609.679	48.7153
610.105	48.25825
610.531	48.40243
610.956	48.46294
611.382	48.70651
611.808	48.43412
612.234	48.54918
612.659	48.37349
613.085	48.34124
613.51	48.15784
613.936	48.1967
614.361	47.4627
614.786	47.90906
615.212	47.65956
615.637	47.7047
616.062	47.57393
616.487	47.13032
616.912	47.73798
617.337	47.56002
617.762	47.54527
618.187	46.83759
618.612	47.31641
619.037	47.18258
619.461	47.04495
619.886	46.80529
620.311	46.69845
620.735	47.15885
621.16	46.92936
621.584	47.28903
622.008	46.70991
622.433	46.65632
622.857	46.86327
623.281	46.7619
623.705	46.68141
624.13	46.81527
624.554	46.59858
624.978	46.92537
625.402	46.78899
625.826	46.64916
626.249	46.59776
626.673	46.67769
627.097	46.84377
627.521	46.26012
627.944	46.38006
628.368	46.54068
628.791	46.77402
629.215	46.59988
629.638	46.70924
630.061	46.77054
630.485	46.45472
630.908	46.84702
631.331	46.39384
631.754	47.13505
632.177	47.09951
632.6	46.34947
633.023	46.57959
633.446	47.27437
633.869	47.25949
634.292	47.61406
634.715	47.87771
635.137	47.78542
635.56	47.80047
635.982	47.75792
636.405	48.03103
636.827	47.9977
637.25	48.27029
637.672	48.37743
638.094	48.75245
638.517	48.55135
638.939	48.51911
639.361	48.99873
639.783	49.4442
640.205	49.03501
640.627	49.26585
641.049	49.10287
641.471	49.74874
641.893	49.35643
642.314	49.99836
642.736	49.57112
643.158	49.62786
643.579	50.38171
644.001	49.46844
644.422	49.39924
644.844	50.27418
645.265	49.8882
645.686	50.14558
646.107	49.87927
646.529	50.4974
646.95	50.81257
647.371	50.74302
647.792	50.64503
648.213	50.83097
648.634	51.37496
649.055	51.54508
649.475	51.65509
649.896	51.66084
650.317	51.79225
650.737	51.98012
651.158	52.32737
651.578	52.34107
651.999	52.86669
652.419	52.56659
652.84	53.1693
653.26	52.9259
653.68	53.56307
654.1	54.10651
654.521	54.10727
654.941	53.89607
655.361	53.83677
655.781	54.38248
656.2	54.73568
656.62	54.36859
657.04	55.00722
657.46	55.13435
657.879	55.24858
658.299	55.4663
658.719	56.1269
659.138	55.36584
659.558	56.39662
659.977	55.78877
660.396	56.58389
660.816	56.39885
661.235	56.55155
661.654	56.84975
662.073	57.11574
662.492	57.26668
662.911	57.24563
663.33	57.64378
663.749	57.23788
664.168	57.67918
664.587	57.25458
665.006	57.94619
665.424	57.99474
665.843	58.69753
666.261	58.51604
666.68	58.92723
667.098	58.75137
667.517	59.0016
667.935	58.36871
668.353	59.06124
668.772	59.53156
669.19	59.4896
669.608	59.15564
670.026	59.75418
670.444	59.631
670.862	59.6594
671.28	59.57327
671.698	59.69026
672.115	59.94304
672.533	59.78422
672.951	60.00114
673.368	60.26292
673.786	59.93046
674.203	60.21512
674.621	59.04875
675.038	59.82333
675.456	60.24018
675.873	59.46688
676.29	60.0132
676.707	59.40066
677.124	59.32282
677.541	59.78715
677.958	59.05531
678.375	59.49443
678.792	59.36068
679.209	59.0718
679.626	59.77074
680.043	59.69703
680.459	59.95452
680.876	59.70343
681.292	59.56656
681.709	59.54053
682.125	59.21101
682.542	59.28976
682.958	58.55428
683.374	59.54139
683.79	59.0852
684.207	59.2655
684.623	58.85696
685.039	59.11339
685.455	58.74479
685.871	58.52248
686.286	58.79585
686.702	58.22795
687.118	58.65146
687.534	58.29102
687.949	58.32495
688.365	58.11551
688.781	57.98205
689.196	57.92765
689.611	57.23612
690.027	57.62684
690.442	57.02492
690.857	57.09841
691.273	56.82298
691.688	56.5084
692.103	57.15228
692.518	56.08199
692.933	55.98501
693.348	55.34681
693.763	55.5394
694.177	54.94054
694.592	55.84433
695.007	55.08104
695.421	55.20851
695.836	54.54807
696.25	54.19452
696.665	53.74985
697.079	54.10964
697.494	53.4135
697.908	53.19705
698.322	53.4736
698.736	52.94948
699.151	53.21561
699.565	52.62698
699.979	52.41661
700.393	51.90283
700.806	52.08373
701.22	52.15374
701.634	51.75434
702.048	51.88198
702.461	50.67926
702.875	50.85066
703.289	50.47584
703.702	50.77394
704.116	50.05867
704.529	50.13381
704.942	49.17728
705.356	49.47559
705.769	48.75984
706.182	48.49527
706.595	47.97755
707.008	47.77033
707.421	47.45736
707.834	47.12391
708.247	47.15794
708.66	46.60145
709.072	47.34689
709.485	45.90324
709.898	46.27758
710.31	45.716
710.723	45.73959
711.135	44.95821
711.548	44.80811
711.96	44.34841
712.373	44.54013
712.785	43.99523
713.197	44.1957
713.609	43.22005
714.021	43.34334
714.433	42.89501
714.845	42.64962
715.257	42.59597
715.669	42.22938
716.081	41.80182
716.493	41.57257
716.904	41.34552
717.316	40.95066
717.727	40.55872
718.139	39.99727
718.55	39.99068
718.962	39.80602
719.373	39.83711
719.784	39.67608
720.196	39.45373
720.607	39.1603
721.018	38.50992
721.429	38.82111
721.84	38.42307
722.251	37.6389
722.662	37.9499
723.073	37.78658
723.483	37.72647
723.894	36.91508
724.305	36.47852
724.715	36.64969
725.126	36.49824
725.536	35.67043
725.947	35.80083
726.357	35.46917
726.768	35.21829
727.178	35.08448
727.588	34.91736
727.998	34.77179
728.408	34.53525
728.818	34.5616
729.228	34.04044
729.638	33.95047
730.048	33.69175
730.458	33.50881
730.868	33.3401
731.277	33.15611
731.687	33.29998
732.097	32.97774
732.506	32.69767
732.916	32.62312
733.325	31.91851
733.734	32.2452
734.144	31.52013
734.553	31.5908
734.962	31.03699
735.371	31.19252
735.78	30.821
736.189	31.17316
736.598	30.58172
737.007	30.99515
737.416	29.87609
737.825	30.54803
738.233	29.63404
738.642	30.10133
739.051	29.73942
739.459	29.96368
739.868	29.48664
740.276	29.64835
740.684	29.32412
741.093	28.85124
741.501	28.9586
741.909	28.62329
742.317	28.56599
742.725	28.2392
743.133	28.17872
743.541	27.79131
743.949	28.19285
744.357	27.76443
744.765	28.21675
745.173	27.64061
745.58	28.01101
745.988	27.09435
746.396	27.46625
746.803	27.07831
747.211	27.35032
747.618	27.07272
748.025	26.93574
748.433	27.18569
748.84	26.35521
749.247	26.99114
749.654	26.46771
750.061	26.70788
750.468	26.33799
750.875	26.46094
751.282	26.32449
751.689	26.58217
752.096	25.99716
752.502	26.12013
752.909	26.29475
753.316	25.95602
753.722	26.01246
754.129	25.57229
754.535	25.81371
754.941	25.32959
755.348	25.99352
755.754	25.05773
756.16	25.96914
756.566	25.16539
756.972	25.62742
757.378	25.33331
757.784	25.17106
758.19	25.54682
758.596	24.9124
759.002	25.24533
759.408	24.72074
759.813	25.15727
760.219	24.3798
760.624	25.14529
761.03	24.71663
761.435	24.62639
761.841	24.60451
762.246	24.09464
762.651	24.36988
763.057	24.0804
763.462	24.98874
763.867	24.2065
764.272	25.28163
764.677	24.58379
765.082	24.98306
765.487	25.10381
765.892	24.47685
766.296	24.71782
766.701	23.99623
767.106	24.45866
767.51	24.08276
767.915	24.54825
768.319	24.10139
768.724	23.98666
769.128	24.09117
769.532	23.47928
769.936	24.38392
770.341	23.60975
770.745	23.87101
771.149	23.03408
771.553	23.95688
771.957	23.5308
772.361	23.43032
772.764	23.64534
773.168	22.91275
773.572	23.48149
773.976	23.54703
774.379	23.54065
774.783	23.86466
775.186	23.10142
775.59	23.47564
775.993	23.06602
776.396	23.51476
776.8	23.4036
777.203	23.55644
777.606	23.4536
778.009	23.07229
778.412	23.96151
778.815	22.87854
779.218	23.57564
779.621	23.29808
780.023	23.63898
780.426	23.68757
780.829	23.54052
781.231	24.05843
781.634	22.80247
782.036	23.76075
782.439	23.3305
782.841	23.20889
783.244	23.71966
783.646	22.91672
784.048	23.80988
784.45	23.23334
784.852	23.2921
785.254	22.64115
785.656	23.24938
786.058	23.69611
786.46	22.8229
786.862	23.4497
787.264	22.63498
787.665	23.01072
788.067	23.33273
788.468	22.66474
788.87	23.6498
789.271	22.49683
789.673	23.07219
790.074	23.6825
790.475	22.81342
790.877	23.48647
791.278	22.98941
791.679	23.39535
792.08	23.43572
792.481	23.4655
792.882	23.85055
793.283	22.81012
793.683	23.41408
794.084	22.97501
794.485	23.2051
794.886	23.34712
795.286	22.32919
795.687	23.11771
796.087	22.52171
796.487	22.94644
796.888	23.20924
797.288	22.70774
797.688	23.00679
798.088	22.93256
798.489	22.73496
798.889	23.47946
799.289	22.83704
799.689	23.5063
800.088	23.04573
800.488	22.86805
800.888	23.22251
801.288	22.95482
801.687	23.35973
802.087	23.06912
802.486	23.37759
802.886	23.81469
803.285	23.19759
803.685	23.81078
804.084	23.25835
804.483	24.10412
804.882	24.32045
805.281	23.41744
805.68	24.48119
806.079	23.72864
806.478	23.27278
806.877	24.03319
807.276	23.62839
807.675	23.87028
808.074	23.44501
808.472	23.5913
808.871	24.00539
809.269	23.94225
809.668	23.80336
810.066	24.34123
810.465	23.8221
810.863	24.08553
811.261	24.12162
811.659	23.93522
812.057	23.98146
812.455	23.30356
812.853	24.5932
813.251	24.07399
813.649	23.65982
814.047	24.58397
814.445	23.81014
814.843	24.14698
815.24	23.80854
815.638	23.91963
816.035	24.24166
816.433	23.59224
816.83	24.06612
817.228	24.17905
817.625	23.78556
818.022	23.98434
818.419	23.87139
818.816	23.46391
819.213	24.22011
819.61	24.07112
820.007	24.21932
820.404	24.52018
820.801	24.18208
821.198	24.9544
821.595	24.67469
821.991	24.42676
822.388	25.32225
822.784	24.83906
823.181	25.16373
823.577	25.63413
823.974	25.21252
824.37	25.4909
824.766	25.2611
825.162	24.95415
825.558	25.11327
825.954	24.54698
826.35	24.98131
826.746	25.46422
827.142	25.02481
827.538	25.60795
827.934	25.6603
828.33	25.32245
828.725	25.43005
829.121	24.97703
829.516	24.93233
829.912	25.10987
830.307	24.6757
830.703	25.19998
831.098	24.69408
831.493	24.89042
831.888	25.31374
832.283	24.71904
832.678	24.69836
833.073	25.26436
833.468	25.11553
833.863	25.26796
834.258	25.57513
834.653	24.9079
835.048	25.79897
835.442	25.50252
835.837	25.22894
836.231	25.53015
836.626	25.42529
837.02	25.27702
837.415	25.95235
837.809	25.45498
838.203	25.81726
838.597	25.37428
838.991	25.02521
839.385	25.1087
839.779	25.777
840.173	25.25338
840.567	25.69233
840.961	25.90622
841.355	25.56622
841.748	25.97691
842.142	25.7836
842.536	25.16948
842.929	25.6642
843.323	25.6231
843.716	25.87124
844.109	25.81213
844.503	25.2798
844.896	26.16948
845.289	26.50246
845.682	25.49247
846.075	26.92593
846.468	26.22961
846.861	26.16816
847.254	26.1013
847.647	26.39372
848.04	25.9877
848.432	26.26263
848.825	24.86765
849.217	25.88334
849.61	26.66116
850.002	26.07645
850.395	25.51133
850.787	25.88394
851.179	25.50331
851.572	25.2887
851.964	26.17822
852.356	25.85768
852.748	25.77023
853.14	26.33325
853.532	25.22478
853.924	25.87226
854.315	26.22048
854.707	25.81889
855.099	26.07598
855.491	26.93136
855.882	25.6196
856.274	26.7394
856.665	26.42266
857.056	25.62418
857.448	25.82172
857.839	26.68704
858.23	25.73118
858.621	25.43844
859.012	26.94989
859.403	24.61177
859.794	26.56714
860.185	26.49918
860.576	25.56029
860.967	25.90334
861.358	26.6854
861.748	25.53209
862.139	25.51007
862.529	26.33425
862.92	25.5543
863.31	25.91045
863.701	26.53428
864.091	25.64589
864.481	25.85039
864.872	26.30421
865.262	24.69877
865.652	26.64659
866.042	25.79792
866.432	25.09151
866.822	26.08717
867.211	25.25423
867.601	25.36608
867.991	25.81265
868.381	25.71885
868.77	25.58575
869.16	26.08995
869.549	26.05236
869.939	24.47501
870.328	25.12177
870.717	25.02866
871.106	25.35772
871.496	25.53049
871.885	25.13523
872.274	24.41843
872.663	25.15706
873.052	25.842
873.441	25.01141
873.829	25.61223
874.218	25.89235
874.607	24.89517
874.996	25.2407
875.384	25.23847
875.773	24.85739
876.161	25.15972
876.549	25.30922
876.938	24.84252
877.326	25.43303
877.714	25.50619
878.102	24.61382
878.491	24.58374
878.879	25.53341
879.267	25.08079
879.655	24.94191
880.042	25.7542
880.43	25.05506
880.818	25.26278
881.206	25.87323
881.593	25.62053
881.981	25.32067
882.368	25.66977
882.756	25.75756
883.143	25.31944
883.53	25.68443
883.918	25.60103
884.305	25.34804
884.692	25.50048
885.079	25.42371
885.466	24.87691
885.853	24.7738
886.24	25.69583
886.627	25.02933
887.014	24.71471
887.4	25.4833
887.787	24.78546
888.174	24.94976
888.56	25.38491
888.947	25.31927
889.333	24.84671
889.719	25.42003
890.106	25.45303
890.492	24.7869
890.878	24.82851
891.264	25.19041
891.65	24.9372
892.036	24.36452
892.422	24.4464
892.808	24.72304
893.194	24.57079
893.58	24.57598
893.965	24.79948
894.351	23.9235
894.736	24.74686
895.122	24.96984
895.507	24.4757
895.893	24.67028
896.278	24.99695
896.663	24.2258
897.049	24.46648
897.434	25.1373
897.819	24.36924
898.204	24.92911
898.589	24.87878
898.974	24.81888
899.359	24.72187
899.743	25.11615
900.128	24.898
900.513	25.13971
900.897	24.89203
901.282	24.83933
901.667	24.2666
902.051	24.13188
902.435	24.55426
902.82	24.05622
903.204	24.04431
903.588	24.55021
903.972	25.0636
904.356	24.65263
904.74	24.33019
905.124	24.76877
905.508	24.82302
905.892	25.0598
906.276	24.86277
906.659	24.71599
907.043	24.45318
907.427	25.30853
907.81	24.33092
908.194	24.58223
908.577	25.6467
908.96	24.60131
909.344	24.83354
909.727	23.80476
910.11	24.88364
910.493	24.28519
910.876	23.60028
911.259	24.15889
911.642	23.96095
912.025	23.50019
912.408	24.06971
912.79	24.06443
913.173	23.44686
913.556	23.2917
913.938	24.24898
914.321	24.00791
914.703	23.18529
915.086	23.59015
915.468	24.21611
915.85	23.37626
916.232	23.51502
916.614	23.96628
916.996	24.40143
917.378	23.80608
917.76	24.23389
918.142	23.93937
918.524	24.4249
918.906	24.51504
919.288	25.09127
919.669	24.05369
920.051	24.32311
920.432	23.88192
920.814	24.86631
921.195	24.00727
921.577	24.32811
921.958	24.49314
922.339	25.1531
922.72	24.01963
923.101	24.37513
923.482	25.2011
923.863	24.70718
924.244	24.54824
924.625	24.51826
925.006	25.65423
925.387	23.78256
925.767	24.82985
926.148	25.61045
926.528	24.23918
926.909	23.33036
927.289	23.95369
927.67	24.62841
928.05	24.07286
928.43	24.43218
928.81	24.52383
929.191	24.34049
929.571	24.24196
929.951	23.85432
930.331	24.51757
930.71	23.60229
931.09	22.87323
931.47	24.57793
931.85	23.5601
932.229	23.92308
932.609	24.2268
932.988	24.62236
933.368	23.51064
933.747	23.6707
934.127	25.64127
934.506	23.30897
934.885	23.25925
935.264	24.37984
935.643	24.10941
936.022	23.94072
936.401	24.32793
936.78	23.57229
937.159	24.99598
937.538	22.64293
937.916	24.2985
938.295	24.0419
938.674	22.98026
939.052	24.59988
939.431	24.03719
939.809	24.04965
940.187	23.77515
940.566	23.11541
940.944	24.89921
941.322	24.9664
941.7	23.3684
942.078	25.18736
942.456	24.38247
942.834	23.17952
943.212	23.28852
943.59	23.97245
943.968	23.60684
944.345	23.18499
944.723	23.18457
945.1	24.31842
945.478	23.6893
945.855	23.39574
946.233	23.82006
946.61	24.1411
946.987	22.86572
947.365	22.77134
947.742	24.13928
948.119	23.13267
948.496	23.06949
948.873	23.31383
949.25	23.80729
949.626	23.33397
950.003	23.42274
950.38	23.18774
950.756	22.97103
951.133	23.10157
951.51	23.94574
951.886	25.41402
952.262	22.73335
952.639	24.9415
953.015	22.70377
953.391	23.80186
953.767	24.50301
954.143	23.99167
954.519	22.67541
954.895	21.5928
955.271	23.31619
955.647	23.48711
956.023	22.0765
956.399	22.53478
956.774	23.60336
957.15	23.75748
957.525	23.89269
957.901	21.63244
958.276	22.16624
958.652	22.58213
959.027	23.00153
959.402	21.59041
959.777	22.96355
960.152	22.93047
960.527	23.572
960.902	22.58975
961.277	22.94392
961.652	21.21437
962.027	23.03402
962.402	21.97437
962.776	22.09418
963.151	21.31529
963.525	21.16899
963.9	21.72742
964.274	21.10752
964.649	20.17992
965.023	23.57688
965.397	23.86577
965.771	21.12761
966.146	20.115
966.52	20.96819
966.894	22.76711
967.268	22.00728
967.641	21.20595
968.015	19.00603
968.389	23.38206
968.763	21.3106
969.136	21.96595
969.51	22.80618
969.883	21.40579
970.257	22.05987
970.63	22.91997
971.003	22.74663
971.377	21.78894
971.75	20.06395
972.123	21.14499
972.496	21.68108
972.869	22.4197
973.242	22.25454
973.615	23.4285
973.988	22.13933
974.36	24.49022
974.733	22.53786
975.106	23.52814
975.478	22.77786
975.851	21.95927
976.223	19.98229
976.596	20.51669
976.968	22.61199
977.34	21.48922
977.712	20.34199
978.085	19.95395
978.457	21.29123
978.829	21.50016
979.201	20.60103
979.573	20.4454
979.944	21.02087
980.316	21.54671
980.688	21.09669
981.059	20.96535
981.431	21.65288
981.803	21.63116
982.174	21.85611
982.545	20.64366
982.917	21.79533
983.288	22.39713
983.659	22.05321
984.03	21.29834
984.401	20.7691
984.772	24.1639
985.143	22.705
985.514	20.50304
985.885	20.56223
986.256	22.30662
986.627	20.94908
986.997	20.99252
987.368	21.08159
987.738	20.77157
988.109	21.49564
988.479	20.90258
988.85	20.48933
989.22	20.62811
989.59	20.681
989.96	19.22678
990.33	21.34832
990.7	19.96406
991.07	20.39752
991.44	19.94982
991.81	20.56181
992.18	20.54161
992.549	20.76898
992.919	21.23703
993.289	20.47392
993.658	20.80132
994.028	21.94426
994.397	21.33586
994.766	18.8654
995.136	20.71273
995.505	19.6778
995.874	18.63839
996.243	19.63861
996.612	20.81129
996.981	21.59637
997.35	20.76214
997.719	22.60452
998.088	18.97724
998.456	18.82293
998.825	18.80025
999.194	21.02799
999.562	20.38866
999.931	20.64159
1000.299	21.3287
1000.667	20.42637
1001.036	20.07069
1001.404	23.35741
1001.772	22.09442
1002.14	21.93945
1002.508	19.87652
1002.876	24.47611
1003.244	23.79969
1003.612	21.95146
1003.98	19.78882
1004.347	21.97528
1004.715	17.84229
1005.083	20.2433
1005.45	23.06945
1005.818	23.69953
1006.185	21.87398
1006.552	21.18554
1006.92	21.6698
1007.287	20.19842
1007.654	19.3126
1008.021	20.35367
1008.388	22.82379
1008.755	21.02769
1009.122	18.07215
1009.489	17.93882
1009.856	17.66301
1010.222	21.5542
1010.589	21.71669
1010.956	22.80859
1011.322	23.39784
1011.689	19.61489
1012.055	21.64614
1012.421	17.75196
1012.788	21.3525
1013.154	15.84567
1013.52	23.00805
1013.886	22.60545
1014.252	19.83653
1014.618	20.55833
1014.984	21.7628
1015.35	21.66323
1015.716	21.17097
1016.081	20.26559
1016.447	23.94774
1016.813	24.37285
1017.178	21.27515
1017.544	25.48389
1017.909	17.46606
1018.274	20.31904
1018.64	20.01759
1019.005	25.88812
1019.37	18.3871
1019.735	20.51171
1020.1	23.0857
1020.465	21.17594
1020.83	21.89669
1021.195	23.23962
1021.56	24.63356
1021.924	21.57921
1022.289	21.33988
1022.654	23.2849
1023.018	23.08113
1023.383	17.65163
1023.747	21.22167
1024.111	20.56854
1024.476	19.1167
1024.84	27.52147
1025.204	20.13383
1025.568	21.76258
1025.932	21.66054
1026.296	25.18863
1026.66	29.4018
1027.024	21.20833
1027.387	21.22402
1027.751	24.10636
1028.115	24.54474
1028.478	22.60524
1028.842	21.1958
1029.205	18.68321
1029.569	16.69281
1029.932	22.18287
1030.295	16.96036
1030.659	25.69157
1031.022	24.43497
1031.385	17.96848
1031.748	18.55488
1032.111	19.39059
1032.474	21.71479
1032.836	14.76984
1033.199	34.34138
1033.562	14.74501
1033.924	24.273
1034.287	26.67029
1034.65	25.46518
1035.012	19.59672
1035.374	17.60234
1035.737	18.03326
1036.099	20.73801
1036.461	31.76196
1036.823	9.65018
1037.185	30.53358
1037.547	15.99136
1037.909	12.08729
1038.271	23.24367
1038.633	23.78218
1038.995	34.66658
1039.356	24.31355
1039.718	25.32677
1040.08	25.32211
1040.441	33.09297
1040.803	10.93829
1041.164	19.40547
1041.525	24.04446
1041.886	18.25014
1042.248	26.32181
1042.609	19.52328
1042.97	33.20198
1043.331	19.91764
1043.692	31.02341
1044.053	24.11454
1044.413	26.36819
1044.774	27.70475
1045.135	11.51447
1045.495	29.57345
1045.856	36.75531
1046.216	27.76991
1046.577	22.42252
1046.937	26.33358
1047.298	24.30397
