Data from 1015water_Reflection__12__16-52-03-862.txt Node

Date: Wed Oct 15 16:52:03 AST 2025
User: lin
Spectrometer: SR600411
Trigger mode: 0
Integration Time (sec): 5.819800E-2
Scans to average: 5
Nonlinearity correction enabled: true
Boxcar width: 0
Storing dark spectrum: false
XAxis mode: Wavelengths
Number of Pixels in Spectrum: 2048
>>>>>Begin Spectral Data<<<<<
187.982	62.25834
188.456	50.90907
188.93	56.50941
189.403	49.54071
189.877	53.49695
190.351	61.21064
190.825	52.31594
191.298	65.25034
191.772	60.65814
192.246	67.27163
192.719	72.5035
193.193	51.71408
193.666	57.72996
194.139	57.236
194.613	48.68603
195.086	58.74891
195.559	59.50775
196.033	59.3402
196.506	70.2329
196.979	56.38416
197.452	60.6681
197.925	62.19268
198.398	63.98175
198.871	69.30335
199.344	46.54672
199.816	60.75094
200.289	57.96562
200.762	61.49381
201.235	59.09747
201.707	60.52755
202.18	65.22864
202.652	63.93279
203.125	55.10499
203.597	36.63855
204.07	60.76309
204.542	62.35692
205.014	67.32678
205.486	61.57003
205.959	52.31041
206.431	42.63004
206.903	60.24899
207.375	59.87552
207.847	51.96863
208.319	52.78706
208.791	55.48285
209.263	54.42649
209.734	39.8249
210.206	79.99619
210.678	44.99509
211.15	74.72186
211.621	39.99524
212.093	54.83262
212.564	50.85632
213.036	40.5997
213.507	87.49774
213.979	76.86094
214.45	54.25721
214.921	41.7199
215.392	67.70417
215.864	47.00276
216.335	77.26889
216.806	87.99843
217.277	47.61281
217.748	67.73655
218.219	59.05325
218.69	64.2787
219.161	48.90848
219.631	45.85811
220.102	83.69316
220.573	60.80381
221.043	54.32445
221.514	64.04088
221.985	88.57002
222.455	49.99117
222.926	55.28994
223.396	50.92057
223.866	49.99394
224.337	70.75036
224.807	59.83024
225.277	56.66228
225.747	39.35725
226.217	46.48559
226.687	35.65304
227.157	58.53066
227.627	47.78738
228.097	50.67769
228.567	74.332
229.037	68.74522
229.507	86.91347
229.977	74.81983
230.446	57.24554
230.916	60.18005
231.386	67.00605
231.855	34.22927
232.325	90.62392
232.794	52.67303
233.263	44.9941
233.733	64.17604
234.202	42.85238
234.671	61.81302
235.14	96.20196
235.61	34.91495
236.079	78.94423
236.548	32.82995
237.017	35.84421
237.486	102.0004
237.955	93.18126
238.424	43.14357
238.892	49.37869
239.361	68.80269
239.83	37.92697
240.299	61.21987
240.767	67.56435
241.236	42.51352
241.704	65.81926
242.173	66.66322
242.641	59.28662
243.109	100
243.578	43.25554
244.046	85.55335
244.514	49.99365
244.982	44.43914
245.451	59.61041
245.919	54.28054
246.387	51.63329
246.855	56.5986
247.323	54.44001
247.791	58.114
248.258	104.87888
248.726	37.69923
249.194	69.61694
249.662	51.18631
250.129	41.81287
250.597	52.62876
251.064	48.04813
251.532	62.10082
251.999	64.41834
252.467	85.36382
252.934	50.75102
253.401	97.05844
253.869	33.82867
254.336	54.54004
254.803	54.36387
255.27	52.67303
255.737	53.12183
256.204	64.21521
256.671	54.44001
257.138	45.30935
257.605	89.42112
258.072	20.36689
258.539	59.99595
259.005	76.03819
259.472	53.26574
259.939	37.13799
260.405	68.05245
260.872	63.36168
261.338	54.89945
261.805	40.73556
262.271	68.9025
262.737	73.25247
263.203	40.67514
263.67	82.53788
264.136	102.17432
264.602	44.06202
265.068	116.13134
265.534	35.99542
266	53.44254
266.466	87.77586
266.932	67.52911
267.398	51.27625
267.864	70.703
268.329	56.11766
268.795	45.44967
269.261	60.77948
269.726	48.53858
270.192	29.72666
270.657	78.01888
271.123	48.38249
271.588	69.76204
272.053	61.10771
272.519	56.77391
272.984	59.16091
273.449	46.54599
273.914	86.81112
274.379	60.37232
274.844	58.32812
275.309	52.13095
275.774	50.54493
276.239	36.04257
276.704	27.72636
277.169	102.19821
277.634	69.82273
278.098	62.34898
278.563	52.05117
279.028	12.49878
279.492	67.19453
279.957	80.55332
280.421	49.99395
280.886	55.84038
281.35	57.8382
281.814	50.61326
282.279	106.33017
282.743	44.57424
283.207	58.56806
283.671	75.99728
284.135	46.3582
284.599	52.74275
285.063	74.54338
285.527	83.65102
285.991	66.09644
286.455	105.8834
286.919	45.03173
287.382	67.38729
287.846	54.0504
288.31	28.3285
288.773	60.31446
289.237	44.20587
289.7	85.45319
290.164	50.8003
290.627	57.13877
291.09	81.24758
291.554	82.9972
292.017	114.81755
292.48	55.44915
292.943	64.93158
293.406	48.53858
293.869	42.30517
294.332	78.49151
294.795	70.86094
295.258	58.97061
295.721	56.51501
296.184	44.32514
296.646	68.96059
297.109	44.11265
297.572	52.26837
298.034	87.17776
298.497	37.49702
298.959	59.04258
299.422	61.3298
299.884	17.8061
300.346	62.49739
300.809	120.73578
301.271	64.63042
301.733	87.03462
302.195	86.04446
302.657	42.15192
303.119	62.0649
303.581	83.33151
304.043	46.60433
304.505	84.74425
304.967	83.07511
305.429	39.32162
305.891	104.76274
306.352	55.54982
306.814	94.5198
307.275	51.68098
307.737	53.18684
308.198	60.57745
308.66	41.17157
309.121	71.13007
309.583	48.07434
310.044	80.15475
310.505	44.08147
310.966	96.59033
311.428	82.27619
311.889	59.4011
312.35	105.17304
312.811	57.74304
313.272	44.22568
313.733	57.99516
314.193	233.32233
314.654	61.10771
315.115	74.07098
315.576	36.62901
316.036	46.77113
316.497	84.37416
316.957	59.25667
317.418	-1.81798
317.878	61.10771
318.339	61.72459
318.799	115.28029
319.259	39.59916
319.72	72.99609
320.18	61.79358
320.64	52.87947
321.1	52.37679
321.56	95.83276
322.02	47.55691
322.48	51.10665
322.94	68.51621
323.4	41.88831
323.86	92.53639
324.319	83.99733
324.779	93.42012
325.239	86.29966
325.698	53.53046
326.158	53.97672
326.617	78.34725
327.077	50.57039
327.536	63.94955
327.996	55.55335
328.455	39.17067
328.914	27.39438
329.373	84.84596
329.832	58.53263
330.292	76.92124
330.751	73.74693
331.21	48.99504
331.668	98.82333
332.127	63.21437
332.586	69.65918
333.045	79.16352
333.504	72.12628
333.962	54.38316
334.421	65.6207
334.88	-5.12779
335.338	23.29732
335.797	67.60254
336.255	27.27013
336.714	79.80436
337.172	65.05649
337.63	62.76159
338.088	79.99746
338.547	81.15733
339.005	67.89773
339.463	85.31839
339.921	85.56463
340.379	47.91191
340.837	58.88456
341.295	23.70786
341.753	43.10063
342.21	70.29284
342.668	62.49553
343.126	43.47377
343.584	78.56862
344.041	37.26762
344.499	109.72375
344.956	135.42124
345.414	52.40662
345.871	98.24542
346.328	45.5302
346.786	30.6888
347.243	35.20805
347.7	47.43204
348.157	55.63258
348.614	70.45091
349.071	42.67894
349.528	54.71176
349.985	90.90747
350.442	59.28662
350.899	55.80974
351.356	51.68906
351.812	26.74084
352.269	56.57524
352.726	101.53866
353.182	71.04953
353.639	92.30696
354.095	23.92739
354.552	74.99583
355.008	77.58221
355.465	52.33115
355.921	20.98499
356.377	51.84651
356.833	42.85204
357.289	62.61185
357.745	74.52431
358.201	59.99429
358.657	56.81389
359.113	44.53198
359.569	44.71259
360.025	73.44695
360.481	80.94917
360.937	49.11432
361.392	65.31014
361.848	63.94563
362.303	69.99334
362.759	57.69827
363.214	47.91553
363.67	69.1854
364.125	49.98732
364.581	47.7312
365.036	47.57036
365.491	68.10407
365.946	62.56626
366.401	62.23168
366.856	61.7077
367.311	54.29537
367.766	57.25386
368.221	58.45712
368.676	60.40811
369.131	52.38983
369.586	62.35587
370.041	53.14456
370.495	60.00307
370.95	56.25334
371.404	59.55687
371.859	54.29839
372.313	55.8133
372.768	56.87632
373.222	53.53646
373.676	53.55602
374.131	58.35442
374.585	51.65725
375.039	56.79767
375.493	58.4457
375.947	54.1933
376.401	55.26242
376.855	59.13947
377.309	56.66986
377.763	53.4429
378.217	59.90307
378.67	54.83378
379.124	57.697
379.578	51.84571
380.031	55.33376
380.485	56.12386
380.938	54.76513
381.392	56.00503
381.845	56.49303
382.299	56.70962
382.752	56.33647
383.205	54.58728
383.658	54.4488
384.111	55.07399
384.564	56.01541
385.018	55.84393
385.471	55.06481
385.923	56.4683
386.376	54.31808
386.829	55.61438
387.282	54.94914
387.735	55.26663
388.187	56.5297
388.64	57.17986
389.093	55.81911
389.545	56.29795
389.998	55.73421
390.45	54.70669
390.902	56.113
391.355	56.54422
391.807	57.3145
392.259	56.74905
392.711	55.7095
393.163	56.58546
393.615	56.55841
394.068	56.37535
394.519	56.3826
394.971	56.23389
395.423	56.81172
395.875	55.69095
396.327	56.72492
396.779	55.99685
397.23	56.03296
397.682	56.0557
398.133	55.96324
398.585	55.54774
399.036	55.96537
399.488	55.12181
399.939	55.33825
400.39	55.11918
400.842	56.55755
401.293	55.52251
401.744	54.85979
402.195	55.98171
402.646	54.94809
403.097	54.65982
403.548	54.67077
403.999	55.32451
404.45	55.08296
404.9	54.72821
405.351	54.40548
405.802	54.44307
406.253	54.26738
406.703	54.14795
407.154	53.76325
407.604	53.78575
408.055	54.08163
408.505	53.73284
408.955	53.48918
409.406	52.52829
409.856	53.27006
410.306	52.34915
410.756	52.55054
411.206	52.79487
411.656	52.40714
412.106	52.0709
412.556	51.78352
413.006	52.04914
413.456	51.74203
413.905	51.42966
414.355	51.06271
414.805	50.97228
415.254	50.58192
415.704	50.96883
416.153	50.95154
416.603	50.3032
417.052	50.90054
417.502	50.68732
417.951	49.79345
418.4	49.93391
418.849	49.7935
419.298	49.91669
419.748	49.36016
420.197	49.29802
420.646	49.37697
421.094	49.56543
421.543	49.27371
421.992	49.066
422.441	49.10937
422.89	48.3615
423.338	48.29582
423.787	48.28057
424.236	48.15179
424.684	48.26198
425.133	48.22437
425.581	47.92264
426.029	47.98278
426.478	47.28427
426.926	47.4844
427.374	47.36261
427.822	47.40735
428.27	47.31792
428.718	46.50071
429.166	46.98551
429.614	47.33413
430.062	46.84478
430.51	46.48396
430.958	46.46376
431.406	46.57577
431.853	46.55545
432.301	46.36653
432.749	46.26275
433.196	46.6996
433.644	46.2196
434.091	46.156
434.538	45.88482
434.986	45.99886
435.433	46.24941
435.88	46.31479
436.327	46.25926
436.775	46.13661
437.222	45.61648
437.669	45.89819
438.116	45.96453
438.563	45.89642
439.009	45.82404
439.456	45.84593
439.903	45.91044
440.35	45.63264
440.796	45.62535
441.243	45.53425
441.689	45.01081
442.136	45.55331
442.582	45.64618
443.029	45.70917
443.475	45.3688
443.921	44.8469
444.368	45.06018
444.814	44.9293
445.26	45.7094
445.706	45.40236
446.152	45.49923
446.598	45.81695
447.044	45.13763
447.49	45.55643
447.936	45.50579
448.381	45.28333
448.827	45.54755
449.273	45.87456
449.718	45.74802
450.164	45.63842
450.61	45.2471
451.055	45.48795
451.5	45.71027
451.946	45.97884
452.391	46.02891
452.836	46.00793
453.282	45.44081
453.727	45.65866
454.172	46.15726
454.617	46.22967
455.062	45.46016
455.507	45.84027
455.952	46.11258
456.396	46.12929
456.841	46.17469
457.286	46.3831
457.731	46.69727
458.175	46.36376
458.62	46.11165
459.064	46.31376
459.509	46.49588
459.953	46.25731
460.398	46.96158
460.842	46.8298
461.286	47.11643
461.73	47.49893
462.174	47.13126
462.619	47.40304
463.063	47.14856
463.507	47.11622
463.951	47.42463
464.394	47.95977
464.838	47.86816
465.282	48.11016
465.726	48.14773
466.17	47.91071
466.613	48.39534
467.057	48.38995
467.5	48.49663
467.944	48.82494
468.387	48.69973
468.831	48.85007
469.274	49.05784
469.717	49.74472
470.16	49.96453
470.603	50.12825
471.047	50.68511
471.49	50.33394
471.933	50.70278
472.376	50.60083
472.818	51.07317
473.261	51.20196
473.704	51.38939
474.147	51.60023
474.59	51.70102
475.032	51.32971
475.475	52.19105
475.917	51.77591
476.36	52.56883
476.802	52.78781
477.245	52.8506
477.687	52.73224
478.129	53.54274
478.571	53.45861
479.013	53.56912
479.456	53.84742
479.898	54.06031
480.34	54.45911
480.782	54.45247
481.224	53.9919
481.665	54.39091
482.107	54.13321
482.549	54.4396
482.991	54.3466
483.432	54.45725
483.874	54.41031
484.315	54.87518
484.757	55.01027
485.198	55.3285
485.64	55.46085
486.081	55.79196
486.522	55.65953
486.963	55.65001
487.405	55.96823
487.846	56.31099
488.287	56.07403
488.728	56.5072
489.169	56.25447
489.61	56.80823
490.05	56.65856
490.491	56.61055
490.932	56.52214
491.373	56.36213
491.813	56.23998
492.254	56.53535
492.694	56.50926
493.135	56.82126
493.575	56.77907
494.016	57.21535
494.456	56.8883
494.896	57.06133
495.336	57.63447
495.777	57.49086
496.217	57.74992
496.657	57.67392
497.097	57.7416
497.537	58.07795
497.977	57.79964
498.416	58.19082
498.856	58.12207
499.296	57.94249
499.736	58.16215
500.175	57.84247
500.615	58.73554
501.054	58.50549
501.494	59.19339
501.933	59.05857
502.373	59.35116
502.812	59.11153
503.251	59.16931
503.69	59.04135
504.129	59.66936
504.569	59.57836
505.008	60.05325
505.447	60.3596
505.886	60.52765
506.324	60.69901
506.763	60.574
507.202	60.85822
507.641	61.24953
508.079	61.49087
508.518	61.65244
508.957	61.98581
509.395	61.65729
509.834	62.63169
510.272	62.43449
510.71	62.7116
511.149	63.21705
511.587	63.55969
512.025	63.67424
512.463	63.50611
512.901	64.36466
513.339	64.24355
513.777	64.48332
514.215	64.2534
514.653	64.44133
515.091	64.85748
515.529	65.64821
515.966	65.30338
516.404	65.917
516.842	65.40137
517.279	66.25216
517.717	66.35534
518.154	66.29
518.592	66.83134
519.029	66.67355
519.466	66.80755
519.904	66.85025
520.341	67.13774
520.778	67.63591
521.215	68.11855
521.652	68.60345
522.089	68.71841
522.526	68.70728
522.963	68.93152
523.399	69.37629
523.836	69.68444
524.273	69.96551
524.71	70.32587
525.146	70.69886
525.583	70.80184
526.019	70.58988
526.456	70.43556
526.892	71.31397
527.328	71.24622
527.765	71.59107
528.201	71.50058
528.637	72.09184
529.073	71.88694
529.509	72.34652
529.945	73.02539
530.381	73.1455
530.817	72.52173
531.253	73.17866
531.689	73.50339
532.124	73.37271
532.56	73.76384
532.996	73.6924
533.431	73.52002
533.867	73.49492
534.302	73.56567
534.738	74.25655
535.173	74.59908
535.608	74.73106
536.044	74.74592
536.479	74.88963
536.914	75.01347
537.349	74.89136
537.784	74.60876
538.219	74.99905
538.654	75.24557
539.089	75.40565
539.524	74.72206
539.959	75.52312
540.393	75.75061
540.828	75.83089
541.263	75.86289
541.697	75.86261
542.132	76.33476
542.566	76.14928
543.001	76.17846
543.435	76.10164
543.869	75.7464
544.303	75.57007
544.738	76.21741
545.172	76.02014
545.606	76.50276
546.04	75.76496
546.474	76.2045
546.908	75.46194
547.342	75.65859
547.775	76.18478
548.209	76.02855
548.643	75.71499
549.077	76.44581
549.51	75.99962
549.944	76.25186
550.377	75.92972
550.811	75.96967
551.244	74.95261
551.677	74.95958
552.111	75.02267
552.544	74.88563
552.977	75.57044
553.41	74.72527
553.843	74.54594
554.276	74.81459
554.709	74.1488
555.142	74.63783
555.575	73.71343
556.008	73.88318
556.44	73.49268
556.873	73.17935
557.306	73.24973
557.738	72.8109
558.171	72.66744
558.603	73.14773
559.036	72.50338
559.468	72.41571
559.9	72.60617
560.333	71.68193
560.765	71.64236
561.197	71.29475
561.629	71.23057
562.061	70.90633
562.493	70.21965
562.925	70.49268
563.357	69.86431
563.789	69.85266
564.22	70.36243
564.652	69.4004
565.084	69.6868
565.515	69.22834
565.947	68.57125
566.378	68.03432
566.81	68.31672
567.241	67.77299
567.672	67.95408
568.104	67.62293
568.535	66.7942
568.966	67.22684
569.397	66.83879
569.828	66.32177
570.259	66.36227
570.69	65.88774
571.121	65.59486
571.552	65.32765
571.983	65.21426
572.414	65.17142
572.844	64.64943
573.275	64.48486
573.705	64.50329
574.136	63.97872
574.566	64.12654
574.997	64.08658
575.427	63.93733
575.857	63.58432
576.288	63.4613
576.718	63.24155
577.148	62.48093
577.578	62.49715
578.008	62.42938
578.438	61.87737
578.868	61.72843
579.298	61.37226
579.728	61.19199
580.157	60.40864
580.587	60.16653
581.017	59.75732
581.446	59.98352
581.876	59.65344
582.305	59.57255
582.735	59.08886
583.164	58.7074
583.593	57.97757
584.023	58.30659
584.452	57.87094
584.881	57.67629
585.31	57.45426
585.739	57.61723
586.168	57.49288
586.597	57.20404
587.026	57.19525
587.455	57.12603
587.884	56.97971
588.312	56.98392
588.741	56.26
589.17	56.91854
589.598	56.43504
590.027	56.02387
590.455	55.8994
590.884	55.52077
591.312	55.17165
591.74	55.25234
592.168	54.75438
592.597	54.59756
593.025	54.61552
593.453	54.31499
593.881	54.10041
594.309	53.72367
594.737	53.14648
595.165	53.19468
595.592	52.96108
596.02	53.39348
596.448	52.87319
596.875	52.61592
597.303	52.70927
597.73	52.18393
598.158	51.69946
598.585	51.80631
599.013	51.62798
599.44	51.30324
599.867	51.53112
600.294	51.30355
600.722	51.51576
601.149	51.22474
601.576	51.33046
602.003	51.51384
602.43	51.20251
602.856	50.6616
603.283	50.99557
603.71	50.74358
604.137	50.22562
604.563	50.15671
604.99	49.8133
605.416	50.03906
605.843	49.24147
606.269	49.32112
606.696	49.23574
607.122	49.23387
607.548	49.27132
607.975	49.35973
608.401	49.18207
608.827	49.10864
609.253	49.15055
609.679	48.80837
610.105	48.37074
610.531	48.24122
610.956	48.17621
611.382	48.32604
611.808	48.41568
612.234	48.36378
612.659	48.36063
613.085	48.28246
613.51	48.27594
613.936	48.03309
614.361	47.52241
614.786	48.18297
615.212	47.68079
615.637	47.2454
616.062	47.53581
616.487	46.9822
616.912	47.57788
617.337	47.33951
617.762	47.26739
618.187	47.18517
618.612	47.11745
619.037	46.75865
619.461	47.18081
619.886	46.64806
620.311	46.75728
620.735	46.91426
621.16	46.77695
621.584	46.84709
622.008	46.79995
622.433	46.60329
622.857	46.58135
623.281	46.50077
623.705	46.43505
624.13	46.69687
624.554	46.46553
624.978	47.04743
625.402	46.62298
625.826	46.68296
626.249	46.52259
626.673	46.54317
627.097	46.39713
627.521	46.41879
627.944	46.47217
628.368	46.5952
628.791	46.58386
629.215	46.274
629.638	46.84136
630.061	46.81064
630.485	46.98192
630.908	46.84386
631.331	46.6279
631.754	46.7224
632.177	46.86534
632.6	46.61363
633.023	46.42222
633.446	46.92679
633.869	47.12568
634.292	47.40595
634.715	47.38241
635.137	47.60154
635.56	47.56125
635.982	48.489
636.405	47.69716
636.827	47.74498
637.25	48.06837
637.672	48.19161
638.094	48.46099
638.517	48.3407
638.939	48.53418
639.361	48.62485
639.783	49.46907
640.205	49.30034
640.627	48.83317
641.049	49.24485
641.471	49.56912
641.893	49.4017
642.314	49.91703
642.736	49.98372
643.158	49.62985
643.579	50.24089
644.001	50.10481
644.422	49.87337
644.844	49.95878
645.265	50.07538
645.686	50.41527
646.107	50.38696
646.529	50.54999
646.95	50.48807
647.371	50.7511
647.792	50.93351
648.213	51.23875
648.634	51.19513
649.055	51.04606
649.475	51.80342
649.896	51.61185
650.317	51.82719
650.737	52.28317
651.158	52.4717
651.578	52.90493
651.999	52.79842
652.419	52.2037
652.84	53.00458
653.26	53.10621
653.68	53.91504
654.1	53.63319
654.521	53.85657
654.941	53.64451
655.361	54.40635
655.781	54.16994
656.2	54.72234
656.62	54.19983
657.04	55.05408
657.46	55.36598
657.879	55.29486
658.299	54.70995
658.719	55.82153
659.138	55.70749
659.558	56.48261
659.977	55.89889
660.396	56.50865
660.816	56.20558
661.235	56.40441
661.654	56.33649
662.073	56.97323
662.492	57.26015
662.911	57.3946
663.33	57.46259
663.749	57.11279
664.168	57.36178
664.587	57.58263
665.006	57.88852
665.424	58.18646
665.843	58.59198
666.261	59.045
666.68	58.94666
667.098	58.79874
667.517	59.16089
667.935	58.72544
668.353	59.12316
668.772	59.52302
669.19	59.50015
669.608	59.60049
670.026	59.71824
670.444	60.09368
670.862	59.51659
671.28	59.57743
671.698	59.35003
672.115	59.92431
672.533	60.04632
672.951	59.60687
673.368	60.00963
673.786	59.35132
674.203	60.04865
674.621	59.5318
675.038	59.56768
675.456	60.05061
675.873	59.34289
676.29	59.82887
676.707	59.4165
677.124	59.24028
677.541	59.47148
677.958	59.07879
678.375	58.95884
678.792	59.40558
679.209	59.05837
679.626	59.69417
680.043	59.43072
680.459	59.85013
680.876	59.73992
681.292	59.90607
681.709	59.50876
682.125	59.21277
682.542	59.15424
682.958	58.44585
683.374	59.17794
683.79	59.04794
684.207	59.39525
684.623	58.77792
685.039	59.17129
685.455	58.74479
685.871	58.40526
686.286	59.05951
686.702	58.41734
687.118	58.48985
687.534	58.10213
687.949	58.1697
688.365	58.28621
688.781	57.39744
689.196	57.48765
689.611	56.97129
690.027	57.03339
690.442	56.55759
690.857	57.23112
691.273	56.85221
691.688	56.5982
692.103	56.52592
692.518	56.00734
692.933	55.82505
693.348	55.39387
693.763	56.04502
694.177	55.15756
694.592	55.67671
695.007	54.84829
695.421	55.28457
695.836	54.5768
696.25	53.88435
696.665	53.78995
697.079	54.2447
697.494	53.58836
697.908	53.15676
698.322	53.47553
698.736	52.78103
699.151	52.54297
699.565	51.98696
699.979	52.65093
700.393	51.94925
700.806	51.81377
701.22	51.94468
701.634	51.318
702.048	51.72058
702.461	51.02053
702.875	50.89279
703.289	50.59994
703.702	50.48119
704.116	49.93501
704.529	50.14893
704.942	49.32379
705.356	49.35947
705.769	48.89465
706.182	48.75695
706.595	48.08706
707.008	47.53707
707.421	47.84814
707.834	46.99111
708.247	46.75523
708.66	46.59248
709.072	46.87581
709.485	45.79849
709.898	45.96828
710.31	45.47364
710.723	45.80089
711.135	44.67208
711.548	44.68365
711.96	43.9548
712.373	44.50555
712.785	43.748
713.197	44.13266
713.609	43.3989
714.021	43.43248
714.433	42.34057
714.845	42.67766
715.257	42.13285
715.669	41.53055
716.081	41.1894
716.493	41.35254
716.904	41.18407
717.316	41.07411
717.727	40.8216
718.139	40.13645
718.55	39.79188
718.962	39.95066
719.373	39.32002
719.784	39.04557
720.196	39.51462
720.607	38.88804
721.018	38.83594
721.429	38.82111
721.84	38.24856
722.251	37.83406
722.662	37.70102
723.073	37.43794
723.483	37.26797
723.894	36.84441
724.305	36.87952
724.715	36.54736
725.126	36.62384
725.536	35.32464
725.947	35.76602
726.357	35.247
726.768	35.59597
727.178	34.71726
727.588	35.01556
727.998	34.47925
728.408	34.36108
728.818	34.26479
729.228	33.99637
729.638	33.94245
730.048	33.38518
730.458	33.46481
730.868	33.20344
731.277	33.11733
731.687	32.632
732.097	32.80416
732.506	32.55615
732.916	32.64043
733.325	32.0321
733.734	32.11836
734.144	31.55318
734.553	31.62248
734.962	31.14116
735.371	31.24452
735.78	30.2117
736.189	30.89066
736.598	30.76541
737.007	30.97358
737.416	29.90679
737.825	30.43942
738.233	29.55667
738.642	30.13551
739.051	29.48251
739.459	30.13136
739.868	29.53829
740.276	29.61407
740.684	29.40409
741.093	28.86767
741.501	29.04857
741.909	28.58641
742.317	28.6996
742.725	28.15517
743.133	28.44616
743.541	27.90012
743.949	28.26422
744.357	27.76821
744.765	27.90993
745.173	27.48579
745.58	28.06471
745.988	26.9123
746.396	27.58424
746.803	26.82546
747.211	27.21725
747.618	26.83757
748.025	26.638
748.433	26.51099
748.84	26.49427
749.247	26.88997
749.654	26.385
750.061	26.68097
750.468	26.24443
750.875	26.64574
751.282	26.00973
751.689	26.47784
752.096	25.85745
752.502	26.2643
752.909	26.01983
753.316	26.00253
753.722	25.88913
754.129	25.48054
754.535	25.5244
754.941	25.36876
755.348	25.76057
755.754	25.14256
756.16	25.87755
756.566	25.14273
756.972	25.63154
757.378	25.10733
757.784	25.09582
758.19	25.12944
758.596	24.98762
759.002	25.14954
759.408	24.76784
759.813	25.15335
760.219	24.37398
760.624	24.76947
761.03	24.65918
761.435	24.63513
761.841	24.50769
762.246	24.15516
762.651	24.30616
763.057	23.8702
763.462	24.74443
763.867	24.26164
764.272	24.8635
764.677	24.74415
765.082	24.84313
765.487	24.83695
765.892	24.49589
766.296	24.66129
766.701	24.05727
767.106	24.58427
767.51	24.17922
767.915	24.23625
768.319	24.10789
768.724	23.77585
769.128	23.95807
769.532	23.95144
769.936	24.42558
770.341	23.8882
770.745	24.01624
771.149	23.252
771.553	23.74029
771.957	23.7258
772.361	23.27492
772.764	24.12379
773.168	23.02726
773.572	23.28826
773.976	23.34676
774.379	23.40893
774.783	23.46065
775.186	23.05739
775.59	23.40535
775.993	22.83864
776.396	23.66207
776.8	22.89639
777.203	23.65002
777.606	23.20839
778.009	22.85609
778.412	23.59508
778.815	22.60676
779.218	23.65241
779.621	23.44889
780.023	23.46213
780.426	24.10497
780.829	23.86293
781.231	23.83214
781.634	23.00783
782.036	23.63206
782.439	23.24425
782.841	23.14149
783.244	23.55069
783.646	22.89993
784.048	23.63283
784.45	23.08111
784.852	23.22993
785.254	23.30689
785.656	23.06279
786.058	23.6352
786.46	23.03103
786.862	23.36585
787.264	22.90854
787.665	22.85277
788.067	23.23642
788.468	22.64846
788.87	23.54704
789.271	22.7088
789.673	23.43955
790.074	23.34741
790.475	23.1265
790.877	23.31527
791.278	23.12831
791.679	23.33116
792.08	23.19829
792.481	23.11604
792.882	23.27394
793.283	22.87973
793.683	23.14671
794.084	23.02837
794.485	23.2274
794.886	23.36634
795.286	22.82115
795.687	23.15805
796.087	22.88119
796.487	23.08844
796.888	23.14529
797.288	22.8234
797.688	22.72112
798.088	22.75874
798.489	22.85614
798.889	23.23448
799.289	22.63341
799.689	22.90351
800.088	22.84684
800.488	22.57799
800.888	23.19304
801.288	22.63572
801.687	23.64893
802.087	23.1584
802.486	23.13813
802.886	23.79558
803.285	23.55028
803.685	24.04028
804.084	23.48262
804.483	24.02847
804.882	24.25106
805.281	22.89251
805.68	24.07241
806.079	24.22429
806.478	23.42558
806.877	23.89133
807.276	22.9118
807.675	24.00545
808.074	23.83794
808.472	23.68714
808.871	24.29011
809.269	23.99473
809.668	24.1066
810.066	24.06987
810.465	24.03953
810.863	24.73729
811.261	23.68745
811.659	24.00976
812.057	23.97828
812.455	24.00688
812.853	24.6059
813.251	24.09902
813.649	24.0597
814.047	24.72234
814.445	23.53522
814.843	23.94012
815.24	23.75269
815.638	23.84059
816.035	23.73837
816.433	23.81292
816.83	23.94211
817.228	24.1537
817.625	23.55091
818.022	24.1342
818.419	23.95692
818.816	23.89574
819.213	24.23074
819.61	23.75023
820.007	24.13723
820.404	24.73343
820.801	23.95778
821.198	25.08814
821.595	24.60908
821.991	24.46875
822.388	25.1422
822.784	24.86347
823.181	25.25057
823.577	25.37778
823.974	25.18227
824.37	25.37117
824.766	25.3429
825.162	24.82545
825.558	25.10866
825.954	24.35342
826.35	24.84167
826.746	25.51991
827.142	24.96807
827.538	25.37732
827.934	25.60297
828.33	25.32885
828.725	25.2729
829.121	25.53443
829.516	24.79156
829.912	24.99849
830.307	24.59744
830.703	25.33178
831.098	24.72062
831.493	24.72201
831.888	25.05104
832.283	24.61138
832.678	24.47277
833.073	25.4662
833.468	25.0035
833.863	25.34693
834.258	25.51802
834.653	25.2864
835.048	25.38176
835.442	25.64524
835.837	25.25355
836.231	25.70335
836.626	25.51048
837.02	25.37235
837.415	25.85946
837.809	25.19818
838.203	25.67999
838.597	25.61392
838.991	24.56343
839.385	25.0087
839.779	25.58624
840.173	25.03257
840.567	25.66559
840.961	25.82755
841.355	25.32608
841.748	25.93886
842.142	26.02109
842.536	25.25577
842.929	25.56782
843.323	25.9272
843.716	25.66258
844.109	26.22083
844.503	25.63666
844.896	26.20974
845.289	25.95285
845.682	26.1289
846.075	26.21218
846.468	26.25522
846.861	25.82495
847.254	26.31655
847.647	26.35276
848.04	25.81578
848.432	26.19354
848.825	25.55639
849.217	25.78405
849.61	26.41273
850.002	25.52088
850.395	25.57009
850.787	26.35966
851.179	25.28876
851.572	25.0846
851.964	25.43946
852.356	25.95509
852.748	25.76264
853.14	26.52429
853.532	25.78849
853.924	25.39479
854.315	25.86532
854.707	25.70149
855.099	26.75676
855.491	26.88542
855.882	25.6196
856.274	26.45034
856.665	26.25403
857.056	25.83797
857.448	25.51303
857.839	25.98517
858.23	25.39906
858.621	26.13608
859.012	25.51193
859.403	25.07865
859.794	26.17254
860.185	26.8628
860.576	25.71401
860.967	25.56052
861.358	26.891
861.748	25.05152
862.139	26.05113
862.529	26.16699
862.92	24.73787
863.31	24.94041
863.701	26.00218
864.091	25.11006
864.481	25.67306
864.872	26.00483
865.262	25.09044
865.652	25.74467
866.042	26.2085
866.432	25.04161
866.822	26.04973
867.211	25.90985
867.601	24.9434
867.991	25.42587
868.381	25.61439
868.77	24.72557
869.16	25.80781
869.549	25.40175
869.939	25.13569
870.328	25.33294
870.717	25.14715
871.106	24.65891
871.496	25.67947
871.885	24.80008
872.274	24.57344
872.663	25.14722
873.052	25.14936
873.441	24.9425
873.829	25.23305
874.218	25.78295
874.607	24.98514
874.996	25.39408
875.384	25.56869
875.773	24.70609
876.161	25.59991
876.549	25.71554
876.938	25.34401
877.326	24.69711
877.714	25.6291
878.102	24.67684
878.491	24.94296
878.879	25.22858
879.267	24.79127
879.655	24.6434
880.042	25.63161
880.43	25.22813
880.818	24.97877
881.206	25.60519
881.593	25.83605
881.981	25.00531
882.368	25.58352
882.756	25.72641
883.143	25.201
883.53	25.44553
883.918	25.65074
884.305	25.22897
884.692	25.46422
885.079	25.55987
885.466	25.04853
885.853	25.1934
886.24	25.70064
886.627	24.97288
887.014	24.62648
887.4	25.64493
887.787	25.2543
888.174	24.94001
888.56	25.56604
888.947	25.13892
889.333	24.59705
889.719	25.40916
890.106	24.98349
890.492	24.88056
890.878	25.06175
891.264	24.99184
891.65	24.61066
892.036	24.88349
892.422	25.14965
892.808	24.68834
893.194	24.21396
893.58	25.02735
893.965	24.45453
894.351	24.12697
894.736	24.26356
895.122	24.74466
895.507	24.29088
895.893	24.62156
896.278	25.2051
896.663	24.57538
897.049	24.40871
897.434	25.4451
897.819	24.7676
898.204	24.39204
898.589	25.50485
898.974	24.84305
899.359	24.63797
899.743	24.82993
900.128	24.82871
900.513	25.25357
900.897	24.99072
901.282	24.57274
901.667	24.0634
902.051	24.30403
902.435	24.36851
902.82	24.1407
903.204	23.89119
903.588	24.75818
903.972	24.76364
904.356	24.18893
904.74	24.22786
905.124	24.62041
905.508	24.41764
905.892	24.79409
906.276	24.54005
906.659	24.64165
907.043	24.18619
907.427	25.28388
907.81	24.64821
908.194	24.26757
908.577	25.33994
908.96	24.9299
909.344	25.16315
909.727	23.75026
910.11	24.34153
910.493	24.55963
910.876	23.97642
911.259	24.11419
911.642	24.23175
912.025	23.69628
912.408	23.72001
912.79	23.80973
913.173	23.27534
913.556	23.43501
913.938	24.17958
914.321	23.86924
914.703	22.89967
915.086	23.20598
915.468	23.81799
915.85	23.29527
916.232	23.57016
916.614	23.80248
916.996	24.11599
917.378	23.79431
917.76	23.95805
918.142	24.46275
918.524	23.95194
918.906	24.12025
919.288	24.96801
919.669	24.93187
920.051	23.97122
920.432	24.83172
920.814	24.64626
921.195	24.7252
921.577	24.08696
921.958	25.18531
922.339	24.98967
922.72	24.53966
923.101	24.34501
923.482	25.62646
923.863	23.95006
924.244	23.69223
924.625	25.1092
925.006	25.36154
925.387	25.2151
925.767	23.6573
926.148	25.45522
926.528	24.52178
926.909	24.0449
927.289	24.84322
927.67	23.98015
928.05	24.13695
928.43	24.30312
928.81	24.49629
929.191	23.97789
929.571	24.29612
929.951	23.67886
930.331	23.51565
930.71	24.63343
931.09	22.71485
931.47	24.07595
931.85	24.15009
932.229	23.70731
932.609	24.26671
932.988	24.51194
933.368	23.33853
933.747	24.03863
934.127	24.27884
934.506	23.39335
934.885	23.84421
935.264	24.43209
935.643	23.48199
936.022	24.39112
936.401	24.6656
936.78	23.49955
937.159	23.87903
937.538	22.75117
937.916	24.41119
938.295	23.18557
938.674	23.29953
939.052	23.90573
939.431	25.15643
939.809	23.91217
940.187	23.18862
940.566	22.92454
940.944	24.15285
941.322	24.69267
941.7	23.51817
942.078	23.41522
942.456	23.35816
942.834	22.98617
943.212	23.09249
943.59	24.70296
943.968	23.19231
944.345	23.51311
944.723	22.64784
945.1	23.73276
945.478	23.78149
945.855	23.41395
946.233	21.99652
946.61	24.3809
946.987	24.30301
947.365	22.12333
947.742	24.60782
948.119	22.50602
948.496	22.28683
948.873	23.96116
949.25	24.19483
949.626	23.49062
950.003	23.28471
950.38	23.4878
950.756	24.13414
951.133	25.61697
951.51	25.36123
951.886	23.4109
952.262	23.29858
952.639	23.03748
953.015	22.84585
953.391	24.22667
953.767	22.72694
954.143	23.41605
954.519	23.74841
954.895	21.39528
955.271	24.30571
955.647	22.55777
956.023	21.96718
956.399	24.03782
956.774	24.34754
957.15	24.37363
957.525	22.57339
957.901	20.85217
958.276	23.53962
958.652	23.39957
959.027	23.72433
959.402	20.91285
959.777	24.48407
960.152	23.40251
960.527	22.75243
960.902	22.68767
961.277	22.61665
961.652	22.03137
962.027	22.89934
962.402	20.98058
962.776	22.26026
963.151	19.48333
963.525	21.79923
963.9	23.11194
964.274	22.6104
964.649	22.41453
965.023	23.42494
965.397	24.11092
965.771	20.94705
966.146	20.29457
966.52	19.55676
966.894	23.15502
967.268	20.9225
967.641	21.15178
968.015	22.64103
968.389	22.27312
968.763	20.54833
969.136	23.24306
969.51	23.70062
969.883	21.50764
970.257	22.30815
970.63	24.63735
971.003	22.91332
971.377	22.52552
971.75	21.30784
972.123	20.64551
972.496	23.81445
972.869	21.25964
973.242	22.02493
973.615	22.64081
973.988	22.64497
974.36	22.70585
974.733	22.18187
975.106	21.74868
975.478	23.08542
975.851	21.18104
976.223	21.33127
976.596	20.15457
976.968	22.61199
977.34	22.58981
977.712	21.04879
978.085	19.97307
978.457	21.06405
978.829	21.91675
979.201	20.50888
979.573	20.74286
979.944	20.642
980.316	20.28638
980.688	21.86188
981.059	21.70397
981.431	21.0746
981.803	21.79791
982.174	20.55985
982.545	21.1767
982.917	21.54999
983.288	21.63788
983.659	22.62765
984.03	21.89844
984.401	22.12684
984.772	21.50729
985.143	22.93853
985.514	19.74592
985.885	19.70075
986.256	22.92957
986.627	21.8577
986.997	23.33791
987.368	19.98552
987.738	21.43015
988.109	22.87821
988.479	21.72724
988.85	21.26744
989.22	21.33474
989.59	20.84723
989.96	19.81567
990.33	19.49779
990.7	19.18166
991.07	20.48128
991.44	20.14866
991.81	20.90573
992.18	20.33248
992.549	21.0489
992.919	21.19315
993.289	20.13934
993.658	20.86967
994.028	21.833
994.397	20.78264
994.766	20.69447
995.136	21.0732
995.505	20.27502
995.874	21.00186
996.243	20.21027
996.612	20.68996
996.981	21.23378
997.35	21.95398
997.719	21.48239
998.088	21.69129
998.456	21.90258
998.825	20.47877
999.194	19.59004
999.562	21.04997
999.931	19.10593
1000.299	22.49493
1000.667	22.11239
1001.036	20.12411
1001.404	23.14196
1001.772	22.26151
1002.14	23.32985
1002.508	18.73142
1002.876	23.61156
1003.244	21.93995
1003.612	21.12854
1003.98	16.74756
1004.347	20.47456
1004.715	23.22579
1005.083	19.00745
1005.45	17.97092
1005.818	21.37597
1006.185	18.31588
1006.552	21.59584
1006.92	22.27776
1007.287	20.26958
1007.654	19.742
1008.021	19.50218
1008.388	21.00485
1008.755	23.64981
1009.122	21.25166
1009.489	21.08013
1009.856	17.26588
1010.222	18.70959
1010.589	20.35451
1010.956	20.97513
1011.322	21.40093
1011.689	18.79999
1012.055	21.5805
1012.421	18.57807
1012.788	18.51862
1013.154	20.56318
1013.52	21.49848
1013.886	23.46637
1014.252	23.68314
1014.618	19.87841
1014.984	20.37126
1015.35	20.89827
1015.716	20.80579
1016.081	23.34897
1016.447	24.43079
1016.813	24.27453
1017.178	23.05714
1017.544	23.00378
1017.909	21.20236
1018.274	24.55858
1018.64	20.24386
1019.005	25.66485
1019.37	19.2286
1019.735	23.80951
1020.1	21.74868
1020.465	19.5037
1020.83	20.00383
1021.195	26.10782
1021.56	20.98315
1021.924	25.25681
1022.289	19.75876
1022.654	12.76738
1023.018	27.69889
1023.383	22.59533
1023.747	24.4875
1024.111	24.97742
1024.476	19.83824
1024.84	23.31326
1025.204	22.20414
1025.568	26.49489
1025.932	23.90885
1026.296	21.88452
1026.66	23.82755
1027.024	15.08965
1027.387	34.05077
1027.751	20.59933
1028.115	23.22957
1028.478	31.90363
1028.842	20.18628
1029.205	23.30254
1029.569	22.86808
1029.932	27.67919
1030.295	15.81424
1030.659	22.15538
1031.022	20.28034
1031.385	25.10809
1031.748	20.79082
1032.111	22.12564
1032.474	23.19562
1032.836	20.30949
1033.199	30.07724
1033.562	19.3876
1033.924	27.70044
1034.287	16.16257
1034.65	22.34152
1035.012	19.03674
1035.374	12.82842
1035.737	18.33894
1036.099	15.841
1036.461	19.30476
1036.823	12.06289
1037.185	22.17588
1037.547	21.22002
1037.909	22.70213
1038.271	33.70572
1038.633	26.38372
1038.995	24.84271
1039.356	28.70423
1039.718	22.62489
1040.08	21.65659
1040.441	22.1743
1040.803	23.00958
1041.164	28.56041
1041.525	15.45639
1041.886	30.28038
1042.248	26.98829
1042.609	28.50529
1042.97	33.55906
1043.331	29.87806
1043.692	34.85416
1044.053	33.76183
1044.413	33.84701
1044.774	23.21154
1045.135	5.75711
1045.495	33.73939
1045.856	25.48252
1046.216	29.78977
1046.577	25.69283
1046.937	34.62494
1047.298	42.64998
