Data from 1015water_Reflection__28__16-54-07-497.txt Node

Date: Wed Oct 15 16:54:07 AST 2025
User: lin
Spectrometer: SR600411
Trigger mode: 0
Integration Time (sec): 5.819800E-2
Scans to average: 5
Nonlinearity correction enabled: true
Boxcar width: 0
Storing dark spectrum: false
XAxis mode: Wavelengths
Number of Pixels in Spectrum: 2048
>>>>>Begin Spectral Data<<<<<
187.982	57.49592
188.456	68.62311
188.93	50.9756
189.403	61.34099
189.877	59.85197
190.351	74.47871
190.825	58.05104
191.298	70.51457
191.772	66.51663
192.246	64.50627
192.719	83.88059
193.193	49.74362
193.666	66.65926
194.139	55.00537
194.613	56.15378
195.086	69.74728
195.559	62.18671
196.033	60.81827
196.506	69.95734
196.979	65.49907
197.452	64.36273
197.925	68.87809
198.398	66.48235
198.871	70.7242
199.344	66.86095
199.816	66.35668
200.289	57.96562
200.762	77.4258
201.235	59.09747
201.707	66.80634
202.18	67.13366
202.652	61.04788
203.125	69.87901
203.597	70.17966
204.07	76.14917
204.542	81.71491
205.014	75.3278
205.486	69.46569
205.959	65.55615
206.431	57.35085
206.903	55.12054
207.375	47.6659
207.847	48.57879
208.319	65.21014
208.791	60.68545
209.263	86.07407
209.734	77.11451
210.206	84.99696
210.678	55.99511
211.15	101.0991
211.621	72.99609
212.093	59.6715
212.564	70.68489
213.036	48.72119
213.507	82.68935
213.979	70.14368
214.45	51.93159
214.921	72.65639
215.392	68.74591
215.864	70.93538
216.335	81.81493
216.806	108.00129
217.277	88.09262
217.748	81.44789
218.219	66.43636
218.69	52.58978
219.161	51.08239
219.631	48.86558
220.102	93.47715
220.573	81.07658
221.043	58.26159
221.514	82.01987
221.985	111.43034
222.455	64.03681
222.926	112.94364
223.396	100
223.866	82.78343
224.337	99.05641
224.807	65.5683
225.277	71.10744
225.747	40.42104
226.217	82.45286
226.687	51.15639
227.157	80.48397
227.627	55.8757
228.097	56.8422
228.567	91.14863
229.037	64.28061
229.507	97.19568
229.977	75.51923
230.446	82.43898
230.916	66.6619
231.386	59.78919
231.855	36.03096
232.325	90.62392
232.794	74.10288
233.263	24.1623
233.733	71.63909
234.202	77.54763
234.671	78.17809
235.14	108.86227
235.61	73.01094
236.079	72.62783
236.548	61.18771
237.017	66.03301
237.486	102.0004
237.955	88.63548
238.424	78.07723
238.892	61.72459
239.361	55.04051
239.83	72.41034
240.299	75.50661
240.767	100
241.236	45.66303
241.704	77.21243
242.173	75.63817
242.641	69.02175
243.109	102.66707
243.578	42.54635
244.046	77.77469
244.514	61.71275
244.982	71.2919
245.451	70.18798
245.919	78.09167
246.387	75.40534
246.855	58.48546
247.323	48.88442
247.791	76.91895
248.258	84.14417
248.726	19.66831
249.194	86.07407
249.662	39.28174
250.129	68.17708
250.597	57.89198
251.064	72.72424
251.532	108.42277
251.999	60.57199
252.467	103.65915
252.934	55.29655
253.401	76.46816
253.869	47.36184
254.336	70.90459
254.803	67.95672
255.27	71.42403
255.737	84.37332
256.204	67.88519
256.671	75.55226
257.138	93.74926
257.605	98.07653
258.072	52.77244
258.539	59.99595
259.005	83.33069
259.472	60.7426
259.939	77.13918
260.405	105.55639
260.872	61.38138
261.338	100
261.805	60.18005
262.271	75.6259
262.737	94.18511
263.203	105.08537
263.67	74.6008
264.136	52.16936
264.602	55.07895
265.068	96.77381
265.534	66.99561
266	69.82273
266.466	61.10686
266.932	102.59781
267.398	57.25927
267.864	73.73357
268.329	84.69135
268.795	67.67247
269.261	80.38896
269.726	65.04389
270.192	37.83438
270.657	69.22692
271.123	72.03929
271.588	90.69551
272.053	108.33463
272.519	69.48655
272.984	55.82746
273.449	56.8909
273.914	68.12795
274.379	72.63732
274.844	74.06995
275.309	54.6951
275.774	68.12794
276.239	86.04446
276.704	47.89326
277.169	131.87573
277.634	64.64991
278.098	65.87856
278.563	94.5198
279.028	73.2121
279.492	91.19801
279.957	80.55332
280.421	67.20778
280.886	37.65875
281.35	70.58403
281.814	48.14413
282.279	83.54215
282.743	80.72033
283.207	122.86104
283.671	85.33147
284.135	62.72216
284.599	105.49555
285.063	114.54727
285.527	65.37994
285.991	55.92643
286.455	75.29098
286.919	54.19202
287.382	107.61019
287.846	79.72735
288.31	61.66104
288.773	101.5875
289.237	109.47564
289.7	81.81656
290.164	74.99538
290.627	55.94827
291.09	100
291.554	81.99707
292.017	58.02078
292.48	60.90389
292.943	33.76281
293.406	78.63734
293.869	94.23021
294.332	96.77362
294.795	75.5859
295.258	88.45996
295.721	60.13836
296.184	64.94407
296.646	56.02881
297.109	71.56451
297.572	63.63232
298.034	87.17776
298.497	84.37333
298.959	74.28173
299.422	86.66494
299.884	108.22047
300.346	66.06894
300.809	97.56059
301.271	73.16753
301.733	87.03462
302.195	72.08959
302.657	68.62309
303.119	65.51334
303.581	84.8468
304.043	88.13314
304.505	54.23438
304.967	103.07733
305.429	79.77243
305.891	92.85604
306.352	47.00276
306.814	160.28798
307.275	78.64872
307.737	74.46453
308.198	79.55762
308.66	103.92239
309.121	59.78918
309.583	98.07673
310.044	73.01094
310.505	75.26538
310.966	88.6346
311.428	65.81926
311.889	77.22419
312.35	131.03916
312.811	97.18271
313.272	61.53358
313.733	73.99618
314.193	-494.5483
314.654	127.78285
315.115	93.82623
315.576	94.05829
316.036	101.6131
316.497	128.12729
316.957	53.70104
317.418	25.45247
317.878	45.82978
318.339	123.46145
318.799	109.72375
319.259	50.49004
319.72	108.00172
320.18	79.77243
320.64	108.65579
321.1	86.90286
321.56	73.60833
322.02	63.41085
322.48	64.44035
322.94	55.55291
323.4	86.48477
323.86	55.22059
324.319	79.99682
324.779	92.10417
325.239	109.59056
325.698	89.8972
326.158	84.06779
326.617	68.03705
327.077	71.26083
327.536	61.62387
327.996	95.55518
328.455	97.93776
328.914	42.46221
329.373	41.40937
329.832	65.84999
330.292	130.77339
330.751	71.24675
331.21	65.99555
331.668	77.64413
332.127	82.75615
332.586	94.38109
333.045	80.20531
333.504	74.58557
333.962	36.83947
334.421	70.82939
334.88	56.40835
335.338	45.626
335.797	84.5052
336.255	59.08774
336.714	55.76414
337.172	81.92527
337.63	75.52846
338.088	106.25105
338.547	97.10106
339.005	85.18315
339.463	90.82389
339.921	53.60346
340.379	87.49791
340.837	45.55112
341.295	44.32514
341.753	115.5193
342.21	63.36168
342.668	89.58155
343.126	72.82247
343.584	78.56862
344.041	60.90389
344.499	119.44776
344.956	100
345.414	73.78754
345.871	87.71808
346.328	71.42404
346.786	70.29284
347.243	98.59135
347.7	74.35602
348.157	58.64021
348.614	84.08857
349.071	100
349.528	68.86341
349.985	67.67247
350.442	87.60818
350.899	58.13538
351.356	72.87672
351.812	70.92671
352.269	86.84038
352.726	81.53652
353.182	92.10417
353.639	146.16081
354.095	29.90966
354.552	62.49479
355.008	59.47721
355.465	52.33115
355.921	53.08241
356.377	92.59112
356.833	86.66426
357.289	93.45664
357.745	83.0159
358.201	79.99619
358.657	77.26966
359.113	86.55187
359.569	77.6342
360.025	61.05661
360.481	111.43122
360.937	67.82885
361.392	50.28043
361.848	52.89848
362.303	63.11761
362.759	76.64393
363.214	59.8975
363.67	74.39962
364.125	52.3311
364.581	62.39364
365.036	56.49248
365.491	71.36564
365.946	61.921
366.401	52.43242
366.856	56.31615
367.311	61.40284
367.766	59.33268
368.221	59.19432
368.676	55.67622
369.131	56.29354
369.586	63.31582
370.041	52.11533
370.495	59.51752
370.95	57.86183
371.404	59.28468
371.859	57.99808
372.313	56.63315
372.768	58.77417
373.222	57.32215
373.676	55.33706
374.131	61.03894
374.585	52.77648
375.039	55.12921
375.493	58.82238
375.947	55.56921
376.401	58.62352
376.855	55.71318
377.309	53.20394
377.763	58.80945
378.217	56.02526
378.67	58.39255
379.124	58.7271
379.578	56.88857
380.031	54.89802
380.485	56.57868
380.938	54.88026
381.392	55.49338
381.845	55.68995
382.299	57.21138
382.752	56.39936
383.205	54.49873
383.658	56.35401
384.111	56.02293
384.564	55.52232
385.018	57.01238
385.471	56.06164
385.923	55.95889
386.376	55.78857
386.829	55.26501
387.282	56.4143
387.735	55.76123
388.187	55.08613
388.64	56.87024
389.093	56.25578
389.545	55.71142
389.998	55.43022
390.45	55.96893
390.902	55.45604
391.355	56.46617
391.807	56.33553
392.259	55.99006
392.711	57.18482
393.163	56.00498
393.615	55.87215
394.068	56.401
394.519	56.23503
394.971	55.99672
395.423	56.68151
395.875	55.46375
396.327	55.71695
396.779	55.39747
397.23	55.82947
397.682	55.81006
398.133	55.77584
398.585	56.09572
399.036	55.70831
399.488	54.82201
399.939	55.02389
400.39	55.49529
400.842	54.26653
401.293	55.96168
401.744	55.03811
402.195	55.66203
402.646	55.05359
403.097	54.9722
403.548	54.66539
403.999	55.22846
404.45	54.52978
404.9	54.03191
405.351	55.06619
405.802	54.39734
406.253	53.79701
406.703	53.24229
407.154	54.2534
407.604	53.27533
408.055	53.45727
408.505	53.57287
408.955	53.12874
409.406	52.82861
409.856	52.8676
410.306	52.71224
410.756	52.37049
411.206	52.8688
411.656	52.4889
412.106	51.94364
412.556	51.81271
413.006	52.13601
413.456	51.47568
413.905	50.9283
414.355	50.97269
414.805	51.21194
415.254	51.21027
415.704	50.60549
416.153	50.51469
416.603	50.03785
417.052	50.08399
417.502	50.28601
417.951	49.65112
418.4	49.50093
418.849	49.65175
419.298	49.44075
419.748	49.10399
420.197	49.85727
420.646	49.07464
421.094	48.94924
421.543	49.64175
421.992	49.05927
422.441	48.32766
422.89	48.67557
423.338	48.08865
423.787	48.78142
424.236	48.38658
424.684	48.39236
425.133	47.57333
425.581	47.8742
426.029	47.50253
426.478	47.49471
426.926	47.12645
427.374	47.61652
427.822	47.39139
428.27	47.65227
428.718	46.96798
429.166	47.15656
429.614	46.70548
430.062	46.71861
430.51	46.08686
430.958	47.04445
431.406	46.44613
431.853	46.33709
432.301	46.52525
432.749	46.0309
433.196	46.04201
433.644	46.02356
434.091	45.96736
434.538	46.19529
434.986	45.79632
435.433	45.90948
435.88	45.55832
436.327	46.34303
436.775	46.10754
437.222	45.76844
437.669	45.42799
438.116	45.50831
438.563	45.63546
439.009	45.96394
439.456	45.74877
439.903	45.36931
440.35	45.15685
440.796	45.31368
441.243	45.10331
441.689	45.20233
442.136	45.58859
442.582	45.37254
443.029	45.13593
443.475	45.08746
443.921	44.71609
444.368	45.00951
444.814	45.15852
445.26	45.57024
445.706	45.19827
446.152	45.37721
446.598	45.93638
447.044	45.05129
447.49	45.30311
447.936	45.58666
448.381	45.22149
448.827	45.51989
449.273	45.45895
449.718	45.59179
450.164	45.33603
450.61	45.00933
451.055	45.48448
451.5	45.62936
451.946	45.58138
452.391	45.40458
452.836	45.92669
453.282	45.50455
453.727	45.55344
454.172	45.94232
454.617	46.23155
455.062	45.59188
455.507	46.09044
455.952	46.13478
456.396	45.9631
456.841	46.35385
457.286	46.53773
457.731	46.33768
458.175	46.27053
458.62	45.94205
459.064	46.37104
459.509	46.55258
459.953	46.21215
460.398	46.96874
460.842	46.54119
461.286	47.00367
461.73	47.24565
462.174	47.30627
462.619	47.10871
463.063	47.29183
463.507	47.02976
463.951	47.76253
464.394	47.34783
464.838	47.80227
465.282	47.78586
465.726	47.99438
466.17	48.01118
466.613	48.1815
467.057	48.25614
467.5	48.29963
467.944	48.41611
468.387	48.70409
468.831	48.72099
469.274	48.64675
469.717	49.12359
470.16	49.65886
470.603	49.58782
471.047	50.1656
471.49	50.25627
471.933	50.43107
472.376	50.66674
472.818	50.70178
473.261	51.25735
473.704	51.32098
474.147	51.41523
474.59	51.53713
475.032	51.47811
475.475	51.93192
475.917	52.16685
476.36	52.03317
476.802	52.51241
477.245	52.2807
477.687	52.46929
478.129	53.31492
478.571	53.43345
479.013	53.75542
479.456	53.76439
479.898	53.97802
480.34	54.07211
480.782	53.92296
481.224	54.048
481.665	53.91769
482.107	54.22003
482.549	54.15406
482.991	54.36996
483.432	54.24333
483.874	54.39671
484.315	54.63826
484.757	54.55386
485.198	55.3206
485.64	54.67484
486.081	56.00281
486.522	55.84702
486.963	55.42793
487.405	55.61823
487.846	56.00109
488.287	56.02021
488.728	55.76125
489.169	55.60609
489.61	56.19279
490.05	56.20784
490.491	56.22444
490.932	56.07365
491.373	56.18801
491.813	55.97591
492.254	55.88726
492.694	56.51405
493.135	56.61068
493.575	56.47879
494.016	56.51104
494.456	56.97383
494.896	57.09769
495.336	57.5514
495.777	57.38254
496.217	57.66549
496.657	57.45303
497.097	57.93762
497.537	58.09263
497.977	57.64895
498.416	57.74464
498.856	57.7851
499.296	57.22169
499.736	58.04633
500.175	57.68436
500.615	58.10037
501.054	58.37153
501.494	58.62478
501.933	58.68234
502.373	58.64458
502.812	58.69327
503.251	59.02363
503.69	58.69992
504.129	59.67672
504.569	59.26457
505.008	59.66344
505.447	60.00063
505.886	60.0332
506.324	60.49592
506.763	60.67261
507.202	60.80333
507.641	61.36788
508.079	61.59063
508.518	61.35647
508.957	61.60829
509.395	61.71056
509.834	62.42264
510.272	62.7146
510.71	62.51488
511.149	62.9811
511.587	62.8351
512.025	62.94003
512.463	63.66669
512.901	63.04479
513.339	63.66562
513.777	63.63872
514.215	63.92466
514.653	64.03878
515.091	64.58619
515.529	65.06504
515.966	64.95752
516.404	65.74926
516.842	65.70599
517.279	65.8991
517.717	66.04873
518.154	65.51839
518.592	66.58716
519.029	66.44267
519.466	66.28701
519.904	66.72836
520.341	66.91751
520.778	67.51779
521.215	67.89183
521.652	68.19863
522.089	68.41164
522.526	68.50145
522.963	68.21304
523.399	68.89728
523.836	69.083
524.273	69.72402
524.71	70.13704
525.146	70.09193
525.583	70.54578
526.019	70.20579
526.456	70.63425
526.892	70.8939
527.328	70.59679
527.765	70.89749
528.201	71.04782
528.637	71.75382
529.073	72.0584
529.509	71.94443
529.945	72.15447
530.381	72.5159
530.817	72.34199
531.253	72.62031
531.689	73.15695
532.124	72.68819
532.56	73.21521
532.996	73.0563
533.431	72.64112
533.867	73.68133
534.302	73.40189
534.738	73.55299
535.173	73.89138
535.608	74.39756
536.044	73.69965
536.479	74.14579
536.914	74.26984
537.349	74.68309
537.784	74.34384
538.219	74.89856
538.654	74.52572
539.089	74.84651
539.524	73.87655
539.959	74.88436
540.393	74.48913
540.828	75.252
541.263	75.37874
541.697	75.77399
542.132	75.4772
542.566	75.1905
543.001	75.75866
543.435	75.65209
543.869	75.39219
544.303	75.54666
544.738	75.79983
545.172	75.60907
545.606	75.38677
546.04	75.54722
546.474	76.18988
546.908	75.35901
547.342	75.43227
547.775	75.74722
548.209	75.80565
548.643	75.49645
549.077	75.8347
549.51	75.64561
549.944	75.51855
550.377	75.38859
550.811	75.55341
551.244	74.77486
551.677	74.77865
552.111	74.64386
552.544	74.38674
552.977	75.08581
553.41	74.25945
553.843	74.07917
554.276	74.35479
554.709	73.29653
555.142	74.00648
555.575	73.17481
556.008	73.39713
556.44	72.61528
556.873	72.5246
557.306	72.57575
557.738	72.23602
558.171	72.4767
558.603	72.14971
559.036	71.76489
559.468	71.38121
559.9	71.45781
560.333	71.08143
560.765	71.20776
561.197	70.127
561.629	71.07269
562.061	70.42108
562.493	69.79523
562.925	69.60902
563.357	69.7607
563.789	69.25808
564.22	69.39383
564.652	68.89754
565.084	69.1004
565.515	68.43178
565.947	68.07373
566.378	67.5177
566.81	67.32526
567.241	67.80068
567.672	67.22082
568.104	66.77497
568.535	66.4837
568.966	66.97459
569.397	66.14958
569.828	65.74138
570.259	65.85223
570.69	65.31644
571.121	64.87404
571.552	65.19504
571.983	64.31546
572.414	64.36198
572.844	63.77149
573.275	64.25836
573.705	63.78189
574.136	63.59299
574.566	63.7954
574.997	63.42655
575.427	63.2323
575.857	63.09386
576.288	62.86786
576.718	62.75063
577.148	62.08869
577.578	61.9864
578.008	62.00109
578.438	61.36447
578.868	61.29706
579.298	61.15918
579.728	60.69251
580.157	59.87651
580.587	59.5371
581.017	59.40605
581.446	59.43575
581.876	58.96376
582.305	58.80942
582.735	58.41935
583.164	58.17772
583.593	57.88936
584.023	57.75651
584.452	57.66351
584.881	57.15636
585.31	57.03583
585.739	57.06316
586.168	57.28423
586.597	57.04065
587.026	56.82792
587.455	56.94527
587.884	56.62046
588.312	56.78248
588.741	56.26
589.17	55.78663
589.598	55.87199
590.027	55.68613
590.455	55.29335
590.884	55.1648
591.312	55.06069
591.74	55.22585
592.168	54.82838
592.597	54.35289
593.025	54.47382
593.453	53.9375
593.881	53.77063
594.309	53.52905
594.737	53.12802
595.165	52.83337
595.592	52.60213
596.02	52.78534
596.448	52.50377
596.875	52.19096
597.303	52.16682
597.73	52.21496
598.158	51.52891
598.585	51.60215
599.013	51.19345
599.44	51.13966
599.867	50.85281
600.294	50.98968
600.722	50.83545
601.149	50.80625
601.576	50.94271
602.003	50.92234
602.43	50.89912
602.856	50.78994
603.283	51.11142
603.71	50.27867
604.137	50.14312
604.563	50.08199
604.99	49.83271
605.416	49.51284
605.843	49.35929
606.269	49.0563
606.696	49.00933
607.122	48.76481
607.548	48.97798
607.975	49.30765
608.401	49.43918
608.827	49.2601
609.253	48.94469
609.679	48.68429
610.105	48.25966
610.531	48.05741
610.956	47.82
611.382	48.09894
611.808	48.0085
612.234	48.48358
612.659	48.0335
613.085	48.05739
613.51	47.79351
613.936	47.63705
614.361	47.44138
614.786	47.94044
615.212	47.18985
615.637	47.20867
616.062	47.50899
616.487	46.90955
616.912	47.29424
617.337	47.05207
617.762	47.50338
618.187	46.81266
618.612	46.98807
619.037	46.83345
619.461	46.87306
619.886	46.51842
620.311	46.6369
620.735	46.6383
621.16	46.66675
621.584	46.51027
622.008	46.66216
622.433	47.00446
622.857	46.64776
623.281	46.58059
623.705	46.29836
624.13	46.42474
624.554	46.4093
624.978	46.76311
625.402	46.31753
625.826	46.49706
626.249	45.94405
626.673	46.10679
627.097	46.37828
627.521	46.13058
627.944	45.9883
628.368	46.41545
628.791	46.57494
629.215	46.73055
629.638	46.55739
630.061	46.88622
630.485	46.49059
630.908	46.55436
631.331	46.59262
631.754	47.13178
632.177	46.89173
632.6	46.56046
633.023	46.80231
633.446	46.92173
633.869	46.9614
634.292	47.61406
634.715	47.44647
635.137	47.46497
635.56	47.44693
635.982	47.85061
636.405	47.62397
636.827	47.80454
637.25	48.11203
637.672	47.96352
638.094	48.18631
638.517	47.63819
638.939	48.53607
639.361	48.36301
639.783	49.20892
640.205	49.01963
640.627	49.55955
641.049	49.57944
641.471	49.38755
641.893	49.19311
642.314	49.9686
642.736	49.75448
643.158	49.60801
643.579	50.4964
644.001	49.56879
644.422	49.61835
644.844	50.26614
645.265	50.09349
645.686	50.50584
646.107	49.95751
646.529	50.43269
646.95	50.29261
647.371	50.89048
647.792	50.9856
648.213	50.90892
648.634	51.58311
649.055	51.11474
649.475	51.54538
649.896	51.39752
650.317	51.15323
650.737	52.13786
651.158	51.88612
651.578	52.69371
651.999	52.87949
652.419	52.46047
652.84	52.98319
653.26	53.2479
653.68	53.67387
654.1	53.65924
654.521	53.99511
654.941	53.48923
655.361	54.40635
655.781	54.28506
656.2	54.60449
656.62	55.15719
657.04	55.11879
657.46	55.27994
657.879	55.11415
658.299	55.21413
658.719	55.4742
659.138	55.58046
659.558	56.19601
659.977	55.66325
660.396	56.4135
660.816	56.1397
661.235	56.45272
661.654	56.48218
662.073	56.85923
662.492	57.1926
662.911	57.03623
663.33	57.28144
663.749	56.78422
664.168	57.37448
664.587	56.96494
665.006	57.85222
665.424	58.09168
665.843	58.29908
666.261	58.42575
666.68	58.60331
667.098	58.68248
667.517	58.97792
667.935	58.35172
668.353	58.73459
668.772	58.85444
669.19	59.45583
669.608	59.51575
670.026	59.16444
670.444	59.78451
670.862	59.21842
671.28	59.53584
671.698	59.24632
672.115	59.8598
672.533	59.88198
672.951	59.77287
673.368	60.2794
673.786	59.13318
674.203	59.44789
674.621	59.68883
675.038	59.67839
675.456	60.30876
675.873	59.47488
676.29	59.51376
676.707	58.88587
677.124	58.84536
677.541	59.4991
677.958	59.17076
678.375	59.24317
678.792	59.76874
679.209	59.08906
679.626	59.74586
680.043	59.02284
680.459	60.07943
680.876	59.51738
681.292	59.74075
681.709	59.67997
682.125	59.18642
682.542	59.30385
682.958	58.06289
683.374	59.22381
683.79	58.94501
684.207	59.45036
684.623	58.8875
685.039	58.63214
685.455	58.77568
685.871	58.76056
686.286	58.46723
686.702	58.28206
687.118	58.52576
687.534	58.06435
687.949	58.16613
688.365	57.84062
688.781	57.42783
689.196	57.22371
689.611	57.01813
690.027	57.05148
690.442	56.17732
690.857	57.14749
691.273	56.53075
691.688	56.47908
692.103	56.72969
692.518	55.77222
692.933	55.87774
693.348	55.34117
693.763	55.46909
694.177	54.67027
694.592	55.43865
695.007	54.78343
695.421	54.79406
695.836	54.686
696.25	53.96426
696.665	53.66963
697.079	54.0151
697.494	53.64601
697.908	53.23926
698.322	53.14744
698.736	52.75974
699.151	53.17271
699.565	52.51835
699.979	52.3469
700.393	51.96472
700.806	52.06638
701.22	51.50153
701.634	51.50912
702.048	51.51837
702.461	51.14394
702.875	50.8162
703.289	50.2773
703.702	50.0441
704.116	50.02253
704.529	49.55939
704.942	48.98009
705.356	49.03741
705.769	48.84035
706.182	48.37651
706.595	47.57489
707.008	47.43607
707.421	47.42603
707.834	47.19487
708.247	46.93761
708.66	46.61938
709.072	46.79461
709.485	45.78784
709.898	46.02483
710.31	45.66155
710.723	45.69405
711.135	44.45536
711.548	44.81329
711.96	43.85469
712.373	44.00258
712.785	43.47125
713.197	44.05563
713.609	42.95535
714.021	43.07074
714.433	42.70548
714.845	42.33776
715.257	41.68938
715.669	41.65934
716.081	41.17872
716.493	41.09679
716.904	40.96643
717.316	41.14855
717.727	40.39214
718.139	40.05479
718.55	39.79566
718.962	39.51301
719.373	39.17343
719.784	38.93697
720.196	39.00013
720.607	38.7835
721.018	38.61527
721.429	38.55276
721.84	38.06597
722.251	37.72742
722.662	37.27019
723.073	37.14383
723.483	37.01779
723.894	36.47745
724.305	36.34231
724.715	35.9549
725.126	36.36695
725.536	35.11835
725.947	35.41993
726.357	35.28641
726.768	35.00305
727.178	34.78307
727.588	34.98799
727.998	34.23812
728.408	34.34418
728.818	34.2848
729.228	33.74499
729.638	33.78839
730.048	33.20733
730.458	33.39567
730.868	33.24271
731.277	32.9886
731.687	32.54855
732.097	32.81491
732.506	32.25298
732.916	32.32579
733.325	31.86252
733.734	32.06795
734.144	31.24426
734.553	31.249
734.962	31.06431
735.371	31.16825
735.78	30.47526
736.189	30.74416
736.598	30.18418
737.007	30.61058
737.416	29.80566
737.825	30.09378
738.233	29.74382
738.642	29.87826
739.051	29.49499
739.459	29.71757
739.868	29.62379
740.276	29.36874
740.684	29.2587
741.093	28.59928
741.501	28.55291
741.909	28.5403
742.317	28.23579
742.725	28.00395
743.133	28.16376
743.541	28.1891
743.949	27.97127
744.357	27.64519
744.765	27.749
745.173	27.31954
745.58	27.94005
745.988	27.1001
746.396	27.30188
746.803	26.83897
747.211	26.97623
747.618	26.79935
748.025	26.43766
748.433	26.83401
748.84	26.42759
749.247	26.63616
749.654	26.04656
750.061	26.48492
750.468	26.24832
750.875	26.56987
751.282	25.86706
751.689	26.45225
752.096	25.69416
752.502	26.22224
752.909	26.06999
753.316	25.72556
753.722	25.95181
754.129	25.36434
754.535	25.85271
754.941	25.19149
755.348	25.58127
755.754	25.21085
756.16	25.54044
756.566	25.00057
756.972	25.17294
757.378	25.05237
757.784	24.98194
758.19	25.27257
758.596	24.7204
759.002	24.94432
759.408	24.48334
759.813	24.76898
760.219	24.49615
760.624	24.69127
761.03	24.67957
761.435	24.69979
761.841	24.37597
762.246	23.96261
762.651	24.28693
763.057	23.74184
763.462	24.59995
763.867	24.09023
764.272	24.81432
764.677	24.45249
765.082	24.60547
765.487	24.96715
765.892	24.38685
766.296	24.60478
766.701	23.91231
767.106	24.42477
767.51	23.54121
767.915	24.33953
768.319	23.92165
768.724	23.88458
769.128	23.88589
769.532	23.54085
769.936	24.10622
770.341	23.54892
770.745	23.67898
771.149	23.29653
771.553	23.58801
771.957	23.63672
772.361	23.08072
772.764	23.60097
773.168	22.8107
773.572	23.41373
773.976	23.14653
774.379	23.33295
774.783	23.72825
775.186	22.93828
775.59	23.61364
775.993	22.75241
776.396	23.45164
776.8	22.95185
777.203	23.28912
777.606	23.18414
778.009	22.81555
778.412	23.48925
778.815	22.60676
779.218	23.41114
779.621	22.90883
780.023	23.37095
780.426	23.52729
780.829	23.47325
781.231	24.05564
781.634	22.48899
782.036	23.65164
782.439	23.02169
782.841	23.39424
783.244	23.46058
783.646	22.97828
784.048	23.40244
784.45	22.86125
784.852	23.1932
785.254	23.03106
785.656	22.67303
786.058	23.64627
786.46	22.66075
786.862	23.32393
787.264	22.75931
787.665	23.15654
788.067	22.9499
788.468	22.9252
788.87	23.30654
789.271	22.44267
789.673	23.01421
790.074	23.0198
790.475	23.12399
790.877	23.43792
791.278	22.98941
791.679	23.28035
792.08	22.89351
792.481	23.11879
792.882	23.57738
793.283	22.51782
793.683	22.85437
794.084	23.09297
794.485	22.92921
794.886	22.94633
795.286	22.52594
795.687	23.00746
796.087	22.40192
796.487	22.64912
796.888	23.27054
797.288	22.65664
797.688	22.74515
798.088	22.64912
798.489	22.92077
798.889	23.00589
799.289	22.4766
799.689	22.96517
800.088	22.90934
800.488	22.50549
800.888	23.1282
801.288	22.90665
801.687	22.92761
802.087	22.87518
802.486	23.01527
802.886	23.40722
803.285	22.98603
803.685	23.55547
804.084	23.10236
804.483	23.46628
804.882	23.97355
805.281	23.05224
805.68	24.30645
806.079	23.92026
806.478	23.08016
806.877	24.22787
807.276	23.07611
807.675	23.56701
808.074	23.82156
808.472	23.36662
808.871	24.33266
809.269	23.59794
809.668	23.87509
810.066	24.22493
810.465	23.89998
810.863	23.78911
811.261	24.13134
811.659	23.88984
812.057	23.82898
812.455	23.29083
812.853	23.90756
813.251	23.74861
813.649	23.66602
814.047	24.29808
814.445	23.59498
814.843	23.81777
815.24	24.31422
815.638	23.50272
816.035	23.97687
816.433	23.44682
816.83	24.33607
817.228	24.01778
817.625	23.46185
818.022	23.82844
818.419	23.76729
818.816	23.64919
819.213	23.90593
819.61	23.86837
820.007	24.29795
820.404	24.36545
820.801	23.99663
821.198	24.87861
821.595	24.56819
821.991	24.27754
822.388	25.05156
822.784	24.82559
823.181	25.07595
823.577	25.38345
823.974	24.7762
824.37	25.18732
824.766	25.09465
825.162	24.33658
825.558	25.04797
825.954	24.41382
826.35	24.58795
826.746	25.3062
827.142	24.9606
827.538	25.1184
827.934	25.35113
828.33	25.09729
828.725	25.00944
829.121	24.97839
829.516	24.55549
829.912	24.88213
830.307	24.22934
830.703	24.94584
831.098	24.9178
831.493	24.61537
831.888	24.90221
832.283	24.54585
832.678	24.39075
833.073	25.23428
833.468	24.75242
833.863	25.1631
834.258	25.30634
834.653	24.94741
835.048	25.26403
835.442	25.21716
835.837	24.95826
836.231	25.19526
836.626	25.32508
837.02	24.99109
837.415	25.58086
837.809	25.43664
838.203	25.67376
838.597	25.52812
838.991	24.26082
839.385	25.1622
839.779	25.43041
840.173	24.62299
840.567	25.15239
840.961	26.01403
841.355	24.93124
841.748	25.6967
842.142	25.44065
842.536	25.56399
842.929	26.19874
843.323	25.41728
843.716	25.6278
844.109	25.81737
844.503	25.06023
844.896	25.49681
845.289	25.97648
845.682	25.7923
846.075	26.37006
846.468	26.38969
846.861	25.64017
847.254	25.63725
847.647	25.68377
848.04	25.14201
848.432	25.64097
848.825	24.96602
849.217	25.6564
849.61	25.57997
850.002	26.06914
850.395	25.64356
850.787	26.09949
851.179	25.24438
851.572	25.78767
851.964	25.91963
852.356	25.22839
852.748	25.05679
853.14	25.76022
853.532	26.33711
853.924	25.66432
854.315	26.39808
854.707	25.80323
855.099	26.55786
855.491	25.91321
855.882	25.6736
856.274	26.36441
856.665	26.32301
857.056	25.76161
857.448	26.1907
857.839	26.53444
858.23	24.68215
858.621	25.49209
859.012	26.12163
859.403	24.19855
859.794	26.76834
860.185	26.7158
860.576	25.99073
860.967	26.10145
861.358	26.31993
861.748	25.31432
862.139	25.01362
862.529	26.21789
862.92	25.24359
863.31	25.55448
863.701	26.14037
864.091	25.84017
864.481	25.39726
864.872	25.47128
865.262	25.44365
865.652	25.57322
866.042	26.37532
866.432	24.76096
866.822	26.78621
867.211	25.38169
867.601	25.20533
867.991	25.65198
868.381	25.83491
868.77	24.8861
869.16	25.08573
869.549	25.65751
869.939	24.56236
870.328	25.79327
870.717	25.26566
871.106	24.58012
871.496	25.02713
871.885	24.90671
872.274	24.48843
872.663	24.98003
873.052	25.72337
873.441	24.91034
873.829	25.59417
874.218	24.85998
874.607	24.59103
874.996	24.98372
875.384	25.2146
875.773	24.81578
876.161	25.31125
876.549	25.64165
876.938	24.84875
877.326	24.91384
877.714	25.35258
878.102	24.98748
878.491	24.46992
878.879	25.1453
879.267	24.70776
879.655	24.42462
880.042	25.50475
880.43	25.04048
880.818	24.9238
881.206	25.60069
881.593	25.31407
881.981	25.09338
882.368	25.33981
882.756	25.73715
883.143	25.25846
883.53	25.21572
883.918	25.44197
884.305	25.40601
884.692	24.98088
885.079	25.4691
885.466	24.77681
885.853	24.80044
886.24	25.6742
886.627	24.82666
887.014	24.68438
887.4	25.16305
887.787	25.62702
888.174	24.53036
888.56	25.1602
888.947	25.14932
889.333	24.40448
889.719	25.18834
890.106	25.07739
890.492	25.05348
890.878	24.7649
891.264	24.75153
891.65	24.94053
892.036	24.66722
892.422	24.33437
892.808	24.63383
893.194	24.43805
893.58	24.41638
893.965	24.74669
894.351	24.14233
894.736	24.5201
895.122	24.42067
895.507	24.16919
895.893	24.35368
896.278	24.57024
896.663	24.23989
897.049	24.23846
897.434	24.93322
897.819	25.0552
898.204	24.45089
898.589	25.14706
898.974	24.38394
899.359	24.15988
899.743	25.08145
900.128	25.01061
900.513	24.23795
900.897	24.7204
901.282	24.76258
901.667	24.25551
902.051	23.75012
902.435	24.71242
902.82	24.18398
903.204	23.84334
903.588	24.57547
903.972	24.45153
904.356	24.34347
904.74	24.04758
905.124	24.50175
905.508	24.74794
905.892	23.95026
906.276	25.04828
906.659	24.55906
907.043	23.7564
907.427	24.35217
907.81	24.62705
908.194	24.22341
908.577	24.50675
908.96	24.89405
909.344	24.66265
909.727	23.44749
910.11	24.45725
910.493	23.73048
910.876	24.09216
911.259	23.69516
911.642	23.95033
912.025	23.74531
912.408	23.36586
912.79	24.34345
913.173	23.22985
913.556	23.42904
913.938	24.02025
914.321	23.54053
914.703	22.7497
915.086	22.82596
915.468	23.45062
915.85	23.30593
916.232	22.83749
916.614	23.52458
916.996	23.49152
917.378	23.66188
917.76	24.12679
918.142	24.14941
918.524	23.90155
918.906	23.61525
919.288	24.9315
919.669	24.46278
920.051	24.39139
920.432	23.97129
920.814	24.21219
921.195	24.05678
921.577	23.92405
921.958	24.96135
922.339	24.53498
922.72	24.39316
923.101	24.77436
923.482	25.20884
923.863	24.54433
924.244	24.6141
924.625	24.29562
925.006	25.10331
925.387	24.61228
925.767	24.39684
926.148	25.64697
926.528	24.62206
926.909	24.1934
927.289	25.26517
927.67	25.35094
928.05	23.63345
928.43	24.66267
928.81	25.33193
929.191	24.39489
929.571	23.73658
929.951	22.80169
930.331	24.03512
930.71	22.86867
931.09	23.16207
931.47	24.08542
931.85	23.43438
932.229	24.89424
932.609	23.84769
932.988	24.49187
933.368	23.29803
933.747	22.90432
934.127	24.53683
934.506	22.87658
934.885	23.79197
935.264	24.65155
935.643	23.97346
936.022	25.01565
936.401	23.60157
936.78	23.32292
937.159	23.6894
937.538	23.2816
937.916	23.19445
938.295	24.11229
938.674	22.86975
939.052	23.28742
939.431	24.08985
939.809	24.28338
940.187	23.81807
940.566	22.719
940.944	23.95073
941.322	23.34035
941.7	23.71787
942.078	24.19896
942.456	23.47968
942.834	23.10921
943.212	24.09056
943.59	24.70296
943.968	23.73301
944.345	24.64346
944.723	22.89831
945.1	24.35503
945.478	23.41275
945.855	23.79635
946.233	24.86238
946.61	24.21488
946.987	24.00815
947.365	23.31141
947.742	24.37355
948.119	24.03592
948.496	23.51424
948.873	22.2293
949.25	23.41978
949.626	24.20432
950.003	24.99312
950.38	22.4112
950.756	24.81424
951.133	24.82059
951.51	23.4495
951.886	24.62024
952.262	24.11731
952.639	24.11094
953.015	24.1856
953.391	23.88682
953.767	23.67112
954.143	24.59038
954.519	23.93503
954.895	22.43234
955.271	24.77448
955.647	23.24812
956.023	22.75981
956.399	24.91245
956.774	23.48888
957.15	22.848
957.525	23.47289
957.901	21.94457
958.276	24.84934
958.652	22.9757
959.027	25.20153
959.402	21.91307
959.777	23.1536
960.152	22.9979
960.527	22.26073
960.902	24.18929
961.277	22.12576
961.652	22.55429
962.027	23.67379
962.402	23.99655
962.776	23.42296
963.151	21.8921
963.525	23.09302
963.9	25.94762
964.274	21.87492
964.649	22.25489
965.023	24.30625
965.397	23.92706
965.771	20.64612
966.146	21.19245
966.52	22.11517
966.894	24.81773
967.268	21.1794
967.641	22.96696
968.015	21.34837
968.389	22.64274
968.763	21.38683
969.136	23.61151
969.51	22.85729
969.883	21.966
970.257	21.78676
970.63	22.89544
971.003	24.00879
971.377	23.48318
971.75	21.60056
972.123	22.34392
972.496	23.20831
972.869	22.16447
973.242	21.49686
973.615	23.49602
973.988	21.43589
974.36	22.8108
974.733	21.76658
975.106	21.74868
975.478	23.91776
975.851	21.38404
976.223	20.92809
976.596	21.10172
976.968	22.38726
977.34	21.95609
977.712	21.48306
978.085	20.12603
978.457	21.49949
978.829	20.87539
979.201	20.86728
979.573	20.28016
979.944	20.67752
980.316	20.45527
980.688	21.77685
981.059	20.56532
981.431	21.70391
981.803	21.03828
982.174	19.81367
982.545	21.13406
982.917	22.55372
983.288	21.78482
983.659	21.89656
984.03	21.13469
984.401	20.16253
984.772	23.12425
985.143	21.47913
985.514	21.75537
985.885	21.22276
986.256	22.84462
986.627	21.44468
986.997	23.69251
987.368	22.38666
987.738	21.72288
988.109	22.22203
988.479	21.01108
988.85	19.79111
989.22	20.89988
989.59	20.23221
989.96	19.02572
990.33	19.34035
990.7	18.56084
991.07	19.97878
991.44	19.32854
991.81	20.12877
992.18	19.95346
992.549	20.33515
992.919	21.04691
993.289	19.50209
993.658	18.92195
994.028	21.51778
994.397	21.86937
994.766	20.25291
995.136	20.32976
995.505	22.44037
995.874	21.80777
996.243	19.69577
996.612	20.5383
996.981	21.29971
997.35	19.32512
997.719	21.37019
998.088	20.1457
998.456	22.18627
998.825	22.29008
999.194	23.07629
999.562	22.60893
999.931	21.88016
1000.299	20.21327
1000.667	20.42637
1001.036	23.27617
1001.404	22.81878
1001.772	19.81105
1002.14	23.56159
1002.508	19.57517
1002.876	22.86232
1003.244	24.09967
1003.612	23.28089
1003.98	20.65786
1004.347	23.41087
1004.715	22.06718
1005.083	23.12729
1005.45	19.89992
1005.818	24.72473
1006.185	18.78578
1006.552	20.84364
1006.92	21.12941
1007.287	20.98121
1007.654	23.67864
1008.021	20.14079
1008.388	23.76701
1008.755	24.56765
1009.122	24.23299
1009.489	21.27247
1009.856	20.37693
1010.222	21.75268
1010.589	19.31674
1010.956	23.31441
1011.322	23.12239
1011.689	18.12094
1012.055	25.19089
1012.421	21.95175
1012.788	22.80595
1013.154	22.0328
1013.52	20.13997
1013.886	22.52719
1014.252	21.45202
1014.618	23.19325
1014.984	21.35351
1015.35	22.85321
1015.716	21.35356
1016.081	23.53585
1016.447	26.07326
1016.813	26.33944
1017.178	23.45316
1017.544	24.88864
1017.909	22.85089
1018.274	19.44947
1018.64	22.05406
1019.005	25.10667
1019.37	27.04368
1019.735	23.44307
1020.1	22.8426
1020.465	22.29082
1020.83	22.84316
1021.195	28.97624
1021.56	28.43644
1021.924	25.25681
1022.289	18.1777
1022.654	24.33682
1023.018	24.89519
1023.383	27.00981
1023.747	24.16091
1024.111	27.26368
1024.476	24.70895
1024.84	22.08594
1025.204	30.4863
1025.568	24.22332
1025.932	26.97489
1026.296	28.49296
1026.66	26.13406
1027.024	27.93972
1027.387	25.42557
1027.751	24.32556
1028.115	24.98314
1028.478	31.90363
1028.842	27.85916
1029.205	23.09256
1029.569	18.52245
1029.932	35.41574
1030.295	18.56498
1030.659	31.34992
1031.022	29.32312
1031.385	19.93795
1031.748	27.27555
1032.111	16.90428
1032.474	33.31556
1032.836	21.23281
1033.199	40.97509
1033.562	18.8414
1033.924	25.70108
1034.287	27.7481
1034.65	32.91457
1035.012	24.35675
1035.374	16.40883
1035.737	22.00725
1036.099	21.02608
1036.461	34.25363
1036.823	24.81691
1037.185	24.42595
1037.547	31.98601
1037.909	14.74086
1038.271	36.61211
1038.633	17.09283
1038.995	36.97827
1039.356	29.7175
1039.718	28.70424
1040.08	39.65246
1040.441	26.26864
1040.803	33.19592
1041.164	23.43353
1041.525	25.07509
1041.886	30.69524
1042.248	24.65563
1042.609	34.36356
1042.97	27.13189
1043.331	31.35377
1043.692	33.32184
1044.053	39.90145
1044.413	38.17711
1044.774	34.44498
1045.135	26.1707
1045.495	44.57161
1045.856	32.34409
1046.216	37.36455
1046.577	37.37325
1046.937	31.21078
1047.298	31.64203
