Data from 1015water_Reflection__11__16-51-47-051.txt Node

Date: Wed Oct 15 16:51:47 AST 2025
User: lin
Spectrometer: SR600411
Trigger mode: 0
Integration Time (sec): 5.819800E-2
Scans to average: 5
Nonlinearity correction enabled: true
Boxcar width: 0
Storing dark spectrum: false
XAxis mode: Wavelengths
Number of Pixels in Spectrum: 2048
>>>>>Begin Spectral Data<<<<<
187.982	53.83269
188.456	66.40867
188.93	50.58034
189.403	51.90062
189.877	55.50375
190.351	63.25175
190.825	37.62141
191.298	62.79381
191.772	59.82124
192.246	58.05403
192.719	55.91384
193.193	44.81762
193.666	64.27806
194.139	55.37714
194.613	42.84217
195.086	60.46731
195.559	56.82889
196.033	47.27058
196.506	70.78403
196.979	56.87682
197.452	51.43243
197.925	55.25087
198.398	58.7308
198.871	54.24405
199.344	64.67302
199.816	46.88591
200.289	64.48117
200.762	59.72373
201.235	55.0486
201.707	56.49137
202.18	56.65643
202.652	49.02814
203.125	49.42308
203.597	57.75619
204.07	53.0705
204.542	47.84024
205.014	75.3278
205.486	60.51731
205.959	76.81586
206.431	52.78214
206.903	48.71021
207.375	68.5973
207.847	29.37124
208.319	57.75617
208.791	57.21703
209.263	29.11069
209.734	49.99415
210.206	79.99619
210.678	38.99528
211.15	84.61303
211.621	74.99628
212.093	25.80174
212.564	62.92567
213.036	50.24402
213.507	77.88106
213.979	62.68034
214.45	49.606
214.921	56.82776
215.392	69.78765
215.864	47.85745
216.335	83.63337
216.806	106.66773
217.277	34.12136
217.748	41.92948
218.219	63.08036
218.69	47.39497
219.161	65.21325
219.631	52.625
220.102	58.69122
220.573	47.96564
221.043	50.3874
221.514	49.43379
221.985	112.85916
222.455	36.50866
222.926	62.34898
223.396	79.62615
223.866	57.37112
224.337	58.48545
224.807	49.17427
225.277	57.77342
225.747	19.14605
226.217	83.33019
226.687	39.52876
227.157	55.27852
227.627	32.34703
228.097	32.87031
228.567	79.64238
229.037	49.99444
229.507	54.20033
229.977	48.94396
230.446	55.71877
230.916	60.18005
231.386	45.35605
231.855	19.81632
232.325	93.74926
232.794	70.53109
233.263	11.66421
233.733	92.53639
234.202	42.85238
234.671	47.26728
235.14	91.13797
235.61	57.13673
236.079	67.36427
236.548	46.26204
237.017	69.80688
237.486	57.99516
237.955	143.18722
238.424	36.97954
238.892	49.37869
239.361	55.95797
239.83	35.62822
240.299	49.99514
240.767	95.94537
241.236	55.89929
241.704	65.81926
242.173	101.28225
242.641	50.43687
243.109	118.66997
243.578	37.58209
244.046	84.4421
244.514	39.05645
244.982	41.66145
245.451	45.18719
245.919	65.70958
246.387	29.50315
246.855	33.95754
247.323	41.10678
247.791	74.35455
248.258	86.58347
248.726	42.61703
249.194	36.70522
249.662	66.66296
250.129	33.63149
250.597	22.80502
251.064	59.73658
251.532	30.52232
251.999	41.34114
252.467	100
252.934	37.11509
253.401	30.87948
253.869	51.87311
254.336	39.08571
254.803	61.1602
255.27	46.42304
255.737	45.30935
256.204	64.21521
256.671	48.88442
257.138	23.43522
257.605	71.1496
258.072	16.66369
258.539	51.76049
259.005	45.8286
259.472	19.62282
259.939	60.94742
260.405	74.99732
260.872	13.85899
261.338	74.50788
261.805	49.06871
262.271	43.69166
262.737	63.94955
263.203	69.48904
263.67	31.74332
264.136	57.60424
264.602	47.45179
265.068	72.57819
265.534	81.99707
266	32.75354
266.466	56.66228
266.932	44.15207
267.398	38.45604
267.864	84.84596
268.329	52.03596
268.795	35.34904
269.261	72.54498
269.726	84.46334
270.192	-2.70229
270.657	75.82086
271.123	35.47964
271.588	56.58285
272.053	120.83694
272.519	72.02917
272.984	35.82786
273.449	77.5822
273.914	50.54494
274.379	51.88153
274.844	58.32812
275.309	18.79987
275.774	63.73209
276.239	43.01907
276.704	57.13707
277.169	87.91017
277.634	44.82189
278.098	10.58664
278.563	61.64041
279.028	12.49878
279.492	36.79423
279.957	84.72037
280.421	61.46968
280.886	51.94423
281.35	45.09302
281.814	56.78617
282.279	70.88284
282.743	30.11701
283.207	59.99667
283.671	74.66385
284.135	41.81287
284.599	100
285.063	96.36325
285.527	67.30314
285.991	31.35089
286.455	81.17389
286.919	30.52884
287.382	61.95222
287.846	112.16417
288.31	19.99619
288.773	20.63287
289.237	39.99547
289.7	45.45184
290.164	58.865
290.627	90.47475
291.09	62.49628
291.554	84.99747
292.017	51.84784
292.48	29.0864
292.943	32.46418
293.406	38.83009
293.869	24.99806
294.332	89.24554
294.795	29.12865
295.258	64.099
295.721	55.79034
296.184	68.03705
296.646	33.61555
297.109	82.35
297.572	40.90486
298.034	107.69359
298.497	18.74806
298.959	60.94742
299.422	62.66318
299.884	16.43637
300.346	33.92608
300.809	96.34089
301.271	49.99593
301.733	54.62431
302.195	75.57825
302.657	71.56451
303.119	64.36385
303.581	128.79273
304.043	53.38399
304.505	76.26907
304.967	47.68909
305.429	59.5463
305.891	45.23396
306.352	52.13095
306.814	82.18966
307.275	56.17542
307.737	69.14495
308.198	65.6873
308.66	61.75992
309.121	60.82015
309.583	46.15128
310.044	65.86739
310.505	61.28594
310.966	46.58656
311.428	48.09735
311.889	49.49993
312.35	84.48125
312.811	59.15152
313.272	74.99613
313.733	23.99638
314.193	849.77452
314.654	77.77531
315.115	48.14413
315.576	41.57929
316.036	58.06152
316.497	103.1252
316.957	-40.73459
317.418	-3.63595
317.878	59.71878
318.339	54.31699
318.799	27.77491
319.259	60.39124
319.72	59.99523
320.18	58.42267
320.64	59.61041
321.1	41.66261
321.56	40.27434
322.02	54.87401
322.48	36.66252
322.94	44.4418
323.4	31.07793
323.86	46.26535
324.319	36.99537
324.779	80.26077
325.239	69.85996
325.698	79.79481
326.158	46.89706
326.617	47.41788
327.077	91.95274
327.536	22.09008
327.996	8.88816
328.455	63.91308
328.914	60.2705
329.373	47.46984
329.832	30.48435
330.292	67.30542
330.751	69.99667
331.21	54.99509
331.668	63.5255
332.127	66.66283
332.586	87.63853
333.045	55.20362
333.504	61.46967
333.962	47.3656
334.421	51.0369
334.88	112.82163
335.338	22.32655
335.797	38.02484
336.255	74.23992
336.714	47.11024
337.172	81.92527
337.63	79.78422
338.088	84.99798
338.547	46.3734
339.005	67.89773
339.463	48.61845
339.921	45.35606
340.379	44.78695
340.837	73.32984
341.295	37.10891
341.753	-18.96292
342.21	68.31249
342.668	62.49553
343.126	41.29992
343.584	58.32928
344.041	59.08563
344.499	102.77819
344.956	93.74944
345.414	64.13131
345.871	64.9097
346.328	50.8873
346.786	57.42084
347.243	52.10916
347.7	41.0219
348.157	60.89597
348.614	63.63232
349.071	73.16753
349.528	45.2778
349.985	84.84596
350.442	58.40163
350.899	60.46104
351.356	61.85888
351.812	44.18184
352.269	46.04888
352.726	89.22953
353.182	46.04888
353.639	74.99807
354.095	51.27624
354.552	56.24453
355.008	55.16672
355.465	50.46198
355.921	17.28165
356.377	59.25409
356.833	35.23334
357.289	49.5274
357.745	46.22118
358.201	80.82964
358.657	69.31446
359.113	72.26417
359.569	50.30257
360.025	41.58747
360.481	101.90517
360.937	53.79273
361.392	54.32674
361.848	52.89848
362.303	35.61772
362.759	61.2228
363.214	58.05404
363.67	54.492
364.125	46.08114
364.581	51.49059
365.036	41.62274
365.491	72.45286
365.946	49.98464
366.401	55.31442
366.856	57.664
367.311	50.99574
367.766	48.70838
368.221	64.10925
368.676	65.14041
369.131	56.29354
369.586	59.09219
370.041	52.97302
370.495	53.69133
370.95	53.76762
371.404	57.78771
371.859	58.76358
372.313	54.75925
372.768	57.54613
373.222	55.03075
373.676	53.36855
374.131	56.02809
374.585	54.05568
375.039	55.20505
375.493	58.4457
375.947	52.95507
376.401	55.32832
376.855	55.0903
377.309	60.25611
377.763	54.23364
378.217	56.35292
378.67	55.79963
379.124	55.83322
379.578	52.29993
380.031	56.85902
380.485	56.08251
380.938	56.22359
381.392	53.15476
381.845	55.75978
382.299	57.21138
382.752	56.36791
383.205	54.85294
383.658	55.87766
384.111	54.36237
384.564	56.11403
385.018	56.91889
385.471	55.15341
385.923	56.85039
386.376	55.26611
386.829	55.77988
387.282	55.52468
387.735	55.95909
388.187	54.52139
388.64	56.38375
389.093	55.5515
389.545	55.88471
389.998	56.24091
390.45	56.49095
390.902	56.23979
391.355	57.07945
391.807	56.9101
392.259	56.63772
392.711	56.54412
393.163	56.6131
393.615	56.97739
394.068	55.81963
394.519	56.65315
394.971	56.17064
395.423	56.74279
395.875	55.95482
396.327	56.5953
396.779	56.3454
397.23	56.25005
397.682	56.22169
398.133	56.31225
398.585	55.1719
399.036	55.71458
399.488	55.05451
399.939	55.5801
400.39	56.18801
400.842	55.78002
401.293	55.77429
401.744	55.25672
402.195	55.68486
402.646	54.48729
403.097	54.45707
403.548	55.05786
403.999	55.04704
404.45	54.7563
404.9	55.0037
405.351	54.8029
405.802	54.25001
406.253	54.54265
406.703	54.14297
407.154	54.62602
407.604	54.19906
408.055	53.52874
408.505	53.73284
408.955	53.30433
409.406	53.05162
409.856	53.11178
410.306	52.66353
410.756	52.71303
411.206	52.53396
411.656	52.59648
412.106	52.65644
412.556	51.81688
413.006	52.04086
413.456	51.58464
413.905	51.30232
414.355	51.62258
414.805	51.39364
415.254	51.15279
415.704	51.02502
416.153	50.51469
416.603	50.46316
417.052	50.45476
417.502	51.00846
417.951	49.57318
418.4	49.52461
418.849	50.03653
419.298	50.10914
419.748	49.59616
420.197	50.03696
420.646	49.08471
421.094	49.52501
421.543	49.54382
421.992	49.49734
422.441	49.20629
422.89	48.81444
423.338	48.55238
423.787	48.19548
424.236	48.61816
424.684	48.08924
425.133	47.757
425.581	47.92264
426.029	47.80548
426.478	47.94761
426.926	47.59628
427.374	47.7869
427.822	47.3882
428.27	47.5217
428.718	47.08798
429.166	46.96968
429.614	47.25514
430.062	47.2865
430.51	46.86878
430.958	46.81773
431.406	47.42801
431.853	46.26944
432.301	46.12238
432.749	46.17542
433.196	46.56986
433.644	46.34438
434.091	46.45672
434.538	46.09372
434.986	46.17576
435.433	45.86735
435.88	46.23224
436.327	46.78897
436.775	46.2106
437.222	45.80193
437.669	45.90581
438.116	45.82588
438.563	45.54848
439.009	45.8584
439.456	45.75606
439.903	45.48848
440.35	45.5746
440.796	45.54513
441.243	45.74525
441.689	45.2892
442.136	45.73192
442.582	45.46518
443.029	45.25692
443.475	45.6252
443.921	44.75083
444.368	45.02775
444.814	45.8526
445.26	45.91515
445.706	45.60649
446.152	45.90279
446.598	46.15961
447.044	45.57137
447.49	45.62963
447.936	45.41965
448.381	45.65765
448.827	45.87619
449.273	45.76937
449.718	45.94994
450.164	45.59647
450.61	45.61914
451.055	46.20307
451.5	45.7714
451.946	45.79765
452.391	45.63139
452.836	45.83978
453.282	45.48393
453.727	45.93678
454.172	46.01962
454.617	46.3841
455.062	45.90178
455.507	45.84212
455.952	46.37167
456.396	46.27542
456.841	46.62265
457.286	46.88204
457.731	46.85195
458.175	46.4943
458.62	46.31077
459.064	46.6963
459.509	46.50685
459.953	46.50486
460.398	46.81493
460.842	46.91849
461.286	47.15061
461.73	47.26095
462.174	47.20941
462.619	47.34967
463.063	47.24004
463.507	47.39294
463.951	47.59529
464.394	48.05981
464.838	47.85498
465.282	47.83285
465.726	48.06958
466.17	48.10033
466.613	48.10791
467.057	48.36765
467.5	48.50929
467.944	48.65684
468.387	48.77087
468.831	49.04371
469.274	48.87083
469.717	49.88111
470.16	49.75819
470.603	49.96866
471.047	50.43612
471.49	50.81972
471.933	50.54898
472.376	50.66674
472.818	51.16744
473.261	51.39145
473.704	51.1797
474.147	51.38364
474.59	51.54168
475.032	51.81628
475.475	52.01367
475.917	51.98214
476.36	52.37374
476.802	52.80947
477.245	52.74335
477.687	52.73224
478.129	53.43109
478.571	53.37572
479.013	53.48825
479.456	53.72359
479.898	53.85948
480.34	54.15623
480.782	54.21368
481.224	54.05781
481.665	54.51948
482.107	54.29404
482.549	54.67037
482.991	54.3685
483.432	54.58502
483.874	55.01507
484.315	55.06411
484.757	54.97119
485.198	55.29374
485.64	55.28297
486.081	55.73765
486.522	56.3615
486.963	56.04471
487.405	55.73435
487.846	56.2539
488.287	56.04304
488.728	56.50064
489.169	56.11863
489.61	56.4647
490.05	56.22777
490.491	56.43395
490.932	56.28373
491.373	56.8125
491.813	56.44149
492.254	56.19726
492.694	57.00141
493.135	56.34183
493.575	56.9898
494.016	56.64381
494.456	56.97896
494.896	57.38859
495.336	58.09412
495.777	57.47133
496.217	57.92597
496.657	57.59787
497.097	58.19596
497.537	58.21749
497.977	58.19296
498.416	58.19266
498.856	58.59357
499.296	57.81441
499.736	58.40485
500.175	58.27644
500.615	59.08092
501.054	58.75508
501.494	58.34606
501.933	58.94661
502.373	59.15659
502.812	58.87042
503.251	59.30589
503.69	59.32836
504.129	59.92129
504.569	60.02621
505.008	59.95579
505.447	59.87793
505.886	60.48369
506.324	60.44652
506.763	60.78219
507.202	61.20035
507.641	61.17488
508.079	61.56343
508.518	62.04594
508.957	61.92109
509.395	62.3091
509.834	62.83544
510.272	62.64237
510.71	62.88375
511.149	63.37087
511.587	63.62605
512.025	63.65173
512.463	63.88599
512.901	64.01662
513.339	64.68136
513.777	64.27089
514.215	64.22837
514.653	64.60838
515.091	64.68771
515.529	65.52726
515.966	65.76788
516.404	65.99594
516.842	66.2599
517.279	66.29934
517.717	66.24076
518.154	66.10589
518.592	66.91649
519.029	66.914
519.466	67.11295
519.904	67.27137
520.341	67.1692
520.778	67.60283
521.215	68.65077
521.652	68.76507
522.089	68.95513
522.526	68.79859
522.963	68.73262
523.399	69.68945
523.836	69.58703
524.273	69.90514
524.71	70.42493
525.146	70.65384
525.583	70.97984
526.019	70.64233
526.456	70.57726
526.892	71.32167
527.328	71.43309
527.765	71.77757
528.201	71.74699
528.637	72.04355
529.073	72.10049
529.509	72.32602
529.945	73.0826
530.381	73.08158
530.817	72.84305
531.253	73.11644
531.689	73.71771
532.124	73.35339
532.56	73.41323
532.996	73.76743
533.431	73.52493
533.867	73.92218
534.302	73.82872
534.738	74.27813
535.173	74.61414
535.608	75.05788
536.044	74.9572
536.479	74.75529
536.914	74.76615
537.349	75.17475
537.784	74.65319
538.219	75.40969
538.654	75.38886
539.089	75.76338
539.524	75.20159
539.959	76.12549
540.393	75.60811
540.828	76.06422
541.263	75.89106
541.697	76.36245
542.132	76.01805
542.566	76.17433
543.001	76.11746
543.435	76.29866
543.869	75.81975
544.303	76.35857
544.738	75.87756
545.172	76.2942
545.606	76.38136
546.04	76.06438
546.474	76.57557
546.908	75.74365
547.342	76.50062
547.775	76.37906
548.209	76.36927
548.643	75.77948
549.077	76.35747
549.51	76.44307
549.944	76.27684
550.377	76.19496
550.811	75.9183
551.244	75.40142
551.677	75.34078
552.111	75.36979
552.544	75.63494
552.977	75.59167
553.41	75.08566
553.843	75.45843
554.276	74.94016
554.709	74.52095
555.142	74.64496
555.575	74.69813
556.008	74.52357
556.44	73.66143
556.873	73.47668
557.306	73.53103
557.738	72.96339
558.171	73.30155
558.603	72.85876
559.036	72.7739
559.468	72.11935
559.9	72.38216
560.333	71.59891
560.765	71.85261
561.197	71.39326
561.629	71.09024
562.061	70.63152
562.493	70.57337
562.925	70.48234
563.357	70.1717
563.789	69.63722
564.22	70.08762
564.652	69.32225
565.084	69.42164
565.515	69.07002
565.947	68.19811
566.378	68.39038
566.81	68.17882
567.241	67.64595
567.672	67.77116
568.104	67.90294
568.535	67.11428
568.966	67.06502
569.397	66.92712
569.828	66.73169
570.259	66.87861
570.69	65.75873
571.121	65.45588
571.552	65.52428
571.983	64.76108
572.414	64.56844
572.844	64.70309
573.275	64.71285
573.705	64.86627
574.136	64.00512
574.566	64.79185
574.997	64.33686
575.427	63.74358
575.857	63.76916
576.288	63.51906
576.718	63.16769
577.148	63.06719
577.578	62.5314
578.008	62.70829
578.438	62.01726
578.868	61.69752
579.298	61.26292
579.728	61.02037
580.157	60.74454
580.587	60.48812
581.017	59.64431
581.446	59.84861
581.876	59.40449
582.305	59.14692
582.735	59.26607
583.164	58.67648
583.593	58.37188
584.023	58.41368
584.452	58.05563
584.881	57.84519
585.31	57.69492
585.739	57.81533
586.168	57.56109
586.597	57.40729
587.026	57.62363
587.455	57.75211
587.884	57.579
588.312	56.86332
588.741	56.54647
589.17	56.5003
589.598	56.56955
590.027	55.98707
590.455	55.91518
590.884	55.53791
591.312	55.64724
591.74	55.29208
592.168	55.18918
592.597	54.80522
593.025	54.71484
593.453	54.52297
593.881	54.20505
594.309	53.4986
594.737	53.29681
595.165	53.28103
595.592	53.18795
596.02	53.3626
596.448	52.48759
596.875	52.61997
597.303	52.80557
597.73	52.41597
598.158	52.0003
598.585	51.97128
599.013	51.35538
599.44	51.41005
599.867	51.56504
600.294	51.57941
600.722	51.30714
601.149	51.22747
601.576	51.32233
602.003	51.5424
602.43	51.05693
602.856	50.85275
603.283	51.15417
603.71	50.86189
604.137	50.83623
604.563	50.19546
604.99	50.12534
605.416	49.95435
605.843	49.25811
606.269	49.33637
606.696	49.43022
607.122	49.18375
607.548	49.34117
607.975	49.51737
608.401	49.32616
608.827	49.27708
609.253	48.99122
609.679	48.91836
610.105	48.39043
610.531	48.46183
610.956	48.20318
611.382	48.48077
611.808	48.25818
612.234	48.53207
612.659	48.05779
613.085	48.18354
613.51	48.30907
613.936	47.80922
614.361	47.51956
614.786	47.76499
615.212	47.59306
615.637	47.46726
616.062	47.05877
616.487	47.01154
616.912	47.23948
617.337	47.35766
617.762	47.36653
618.187	46.80158
618.612	47.10215
619.037	46.81406
619.461	46.92989
619.886	46.98186
620.311	46.59039
620.735	47.12605
621.16	46.93208
621.584	46.75572
622.008	46.42209
622.433	46.71479
622.857	46.81989
623.281	46.61712
623.705	46.55416
624.13	46.769
624.554	46.58624
624.978	46.79362
625.402	46.43608
625.826	46.47876
626.249	46.34106
626.673	46.45731
627.097	46.41597
627.521	46.53963
627.944	46.45024
628.368	46.5893
628.791	46.76214
629.215	46.77412
629.638	46.63939
630.061	46.60553
630.485	46.90392
630.908	46.69831
631.331	46.55254
631.754	46.96377
632.177	46.69717
632.6	46.81636
633.023	47.05522
633.446	47.11407
633.869	46.89027
634.292	47.45582
634.715	47.59366
635.137	47.55076
635.56	47.68965
635.982	47.92905
636.405	47.88819
636.827	48.26493
637.25	48.20662
637.672	48.19529
638.094	48.17331
638.517	48.13381
638.939	48.54549
639.361	48.83549
639.783	48.73468
640.205	49.05231
640.627	49.29483
641.049	48.92785
641.471	49.68162
641.893	49.5867
642.314	49.63142
642.736	49.92391
643.158	49.88597
643.579	50.25899
644.001	49.87391
644.422	49.57253
644.844	50.01704
645.265	50.05525
645.686	50.26633
646.107	49.99162
646.529	50.52976
646.95	50.88514
647.371	51.32492
647.792	50.88742
648.213	51.24675
648.634	51.54269
649.055	51.61177
649.475	51.71808
649.896	51.61389
650.317	51.57441
650.737	52.60498
651.158	52.23325
651.578	52.60713
651.999	52.91363
652.419	52.64512
652.84	53.06233
653.26	53.2479
653.68	53.89765
654.1	53.85029
654.521	54.22824
654.941	53.78012
655.361	54.07075
655.781	54.37583
656.2	55.09598
656.62	54.73728
657.04	55.1054
657.46	55.48291
657.879	55.27062
658.299	55.45314
658.719	56.3438
659.138	55.92217
659.558	56.20042
659.977	56.5708
660.396	56.60824
660.816	56.43619
661.235	56.50762
661.654	56.74534
662.073	56.94253
662.492	57.39306
662.911	57.77035
663.33	57.50789
663.749	57.43508
664.168	57.30889
664.587	57.71046
665.006	57.98036
665.424	58.78334
665.843	58.65876
666.261	58.26668
666.68	58.31401
667.098	59.35652
667.517	59.25777
667.935	58.74455
668.353	59.31108
668.772	59.40978
669.19	59.90339
669.608	59.67252
670.026	59.88104
670.444	59.62048
670.862	59.735
671.28	60.12444
671.698	59.27329
672.115	60.25105
672.533	60.11705
672.951	60.3623
673.368	60.6584
673.786	59.73671
674.203	60.11158
674.621	59.63246
675.038	59.98641
675.456	60.24018
675.873	59.77291
676.29	60.37006
676.707	59.87205
677.124	59.78863
677.541	59.97264
677.958	59.04357
678.375	59.48275
678.792	59.33725
679.209	59.25981
679.626	59.84158
680.043	59.87649
680.459	60.54187
680.876	59.78187
681.292	59.58433
681.709	59.62879
682.125	59.3129
682.542	58.95185
682.958	58.74494
683.374	59.36671
683.79	59.09585
684.207	59.36503
684.623	58.87852
685.039	59.41198
685.455	59.16282
685.871	59.07986
686.286	58.99991
686.702	58.52377
687.118	58.61375
687.534	58.41697
687.949	58.59265
688.365	58.26645
688.781	57.56905
689.196	57.61515
689.611	57.45774
690.027	57.70827
690.442	57.33112
690.857	57.58386
691.273	56.80106
691.688	56.81816
692.103	57.0513
692.518	56.07079
692.933	56.57794
693.348	55.93604
693.763	56.22754
694.177	55.47745
694.592	55.65766
695.007	55.42069
695.421	55.57363
695.836	55.10372
696.25	54.65134
696.665	54.21785
697.079	54.35855
697.494	53.82283
697.908	53.0052
698.322	53.70911
698.736	52.81394
699.151	53.0752
699.565	52.61922
699.979	52.24235
700.393	52.0769
700.806	51.91596
701.22	51.90017
701.634	51.81227
702.048	52.05313
702.461	51.17673
702.875	51.30644
703.289	50.31929
703.702	50.92034
704.116	49.9997
704.529	49.90325
704.942	49.68826
705.356	50.08256
705.769	49.00514
706.182	48.44702
706.595	48.25226
707.008	47.93934
707.421	47.97719
707.834	47.32042
708.247	46.94302
708.66	46.614
709.072	47.05808
709.485	45.92099
709.898	46.2988
710.31	45.69668
710.723	45.68354
711.135	45.11431
711.548	44.90838
711.96	44.54699
712.373	44.40355
712.785	43.99523
713.197	44.12741
713.609	42.97112
714.021	43.2647
714.433	42.81955
714.845	42.73724
715.257	42.50757
715.669	42.12346
716.081	41.55431
716.493	41.7175
716.904	41.02991
717.316	41.10861
717.727	40.8179
718.139	40.13274
718.55	40.12892
718.962	39.98112
719.373	39.9066
719.784	39.50531
720.196	39.42034
720.607	39.33199
721.018	38.65502
721.429	38.25847
721.84	38.50019
722.251	37.58861
722.662	37.89729
723.073	37.32512
723.483	37.44814
723.894	36.74039
724.305	36.58752
724.715	36.47594
725.126	36.30417
725.536	35.73737
725.947	35.79167
726.357	35.45662
726.768	35.18476
727.178	34.99266
727.588	34.96732
727.998	34.9857
728.408	34.51834
728.818	34.48489
729.228	34.01596
729.638	34.01467
730.048	33.76325
730.458	33.54024
730.868	33.17516
731.277	33.04598
731.687	32.57018
732.097	33.04381
732.506	32.39445
732.916	32.55075
733.325	32.1249
733.734	32.00291
734.144	31.55318
734.553	31.72088
734.962	31.10017
735.371	31.16998
735.78	30.78607
736.189	31.25086
736.598	30.28043
737.007	30.76151
737.416	30.36024
737.825	30.54441
738.233	29.90582
738.642	30.26507
739.051	29.79473
739.459	29.68547
739.868	29.34774
740.276	29.59603
740.684	29.37138
741.093	28.89689
741.501	29.12387
741.909	28.3633
742.317	28.59568
742.725	28.20185
743.133	28.1675
743.541	28.16094
743.949	28.46523
744.357	28.06544
744.765	27.85691
745.173	27.47433
745.58	27.98032
745.988	27.11352
746.396	27.42758
746.803	26.98759
747.211	27.44677
747.618	26.52989
748.025	26.72387
748.433	26.95565
748.84	26.55713
749.247	26.90142
749.654	26.31769
750.061	26.73672
750.468	26.39843
750.875	26.99796
751.282	26.15634
751.689	26.27315
752.096	25.74531
752.502	26.28232
752.909	26.29877
753.316	25.56993
753.722	26.06706
754.129	25.43977
754.535	26.02307
754.941	25.35433
755.348	25.70286
755.754	24.95223
756.16	25.94832
756.566	25.21279
756.972	25.47933
757.378	25.12972
757.784	25.47416
758.19	25.40565
758.596	24.79363
759.002	25.09285
759.408	24.70897
759.813	25.37504
760.219	24.66877
760.624	24.79235
761.03	24.79262
761.435	24.62464
761.841	24.46167
762.246	24.30237
762.651	24.53941
763.057	23.67483
763.462	24.44403
763.867	23.98238
764.272	24.75739
764.677	24.6847
765.082	24.93942
765.487	24.65374
765.892	24.328
766.296	24.79075
766.701	23.9886
767.106	24.56433
767.51	24.0212
767.915	24.51873
768.319	24.13604
768.724	24.04659
769.128	23.87236
769.532	23.54085
769.936	24.01136
770.341	23.39688
770.745	24.1615
771.149	23.37388
771.553	23.71174
771.957	23.70413
772.361	23.36475
772.764	23.85987
773.168	22.84306
773.572	23.19543
773.976	23.18455
774.379	23.28737
774.783	23.13398
775.186	22.91498
775.59	23.46002
775.993	22.9275
776.396	23.23337
776.8	23.03637
777.203	23.97898
777.606	23.46438
778.009	23.13986
778.412	23.70635
778.815	22.85408
779.218	23.77307
779.621	22.77455
780.023	23.63898
780.426	23.75666
780.829	23.67227
781.231	24.29038
781.634	22.74421
782.036	23.35795
782.439	23.16078
782.841	23.12464
783.244	23.55069
783.646	23.42895
784.048	23.61878
784.45	23.04164
784.852	23.32319
785.254	22.98371
785.656	22.95977
786.058	23.57706
786.46	22.63913
786.862	23.51783
787.264	22.58774
787.665	22.8139
788.067	23.19883
788.468	22.40205
788.87	23.43029
789.271	22.85722
789.673	23.14952
790.074	23.26183
790.475	22.91359
790.877	23.46603
791.278	22.78504
791.679	23.51036
792.08	22.72903
792.481	23.66092
792.882	23.64083
793.283	22.84632
793.683	22.97686
794.084	22.85425
794.485	23.26642
794.886	22.99299
795.286	22.77467
795.687	23.15536
796.087	23.09694
796.487	22.84197
796.888	23.0387
797.288	22.55713
797.688	23.18305
798.088	22.72666
798.489	23.00696
798.889	23.06848
799.289	22.68019
799.689	23.11094
800.088	22.77865
800.488	22.92317
800.888	23.24904
801.288	22.94278
801.687	23.66111
802.087	22.74899
802.486	23.21374
802.886	23.5218
803.285	22.94116
803.685	23.68473
804.084	23.27135
804.483	23.9627
804.882	24.15524
805.281	23.62291
805.68	24.26689
806.079	24.08879
806.478	23.21964
806.877	24.33347
807.276	23.41796
807.675	24.2132
808.074	24.29982
808.472	23.47235
808.871	24.20829
809.269	23.67663
809.668	24.02834
810.066	24.05695
810.465	23.76045
810.863	24.48957
811.261	23.94015
811.659	23.97411
812.057	24.00052
812.455	23.8318
812.853	24.33286
813.251	23.80805
813.649	23.56995
814.047	24.67621
814.445	23.54718
814.843	24.13241
815.24	24.00966
815.638	23.91145
816.035	24.33606
816.433	23.81292
816.83	23.98345
817.228	24.0938
817.625	23.44664
818.022	24.12812
818.419	23.80075
818.816	23.65429
819.213	24.22466
819.61	23.87374
820.007	24.33611
820.404	24.40601
820.801	24.02888
821.198	25.10709
821.595	24.774
821.991	24.50137
822.388	25.33917
822.784	24.99689
823.181	25.37066
823.577	25.4634
823.974	25.20903
824.37	25.5138
824.766	25.34577
825.162	24.78662
825.558	25.449
825.954	24.67286
826.35	24.85204
826.746	25.39392
827.142	25.09201
827.538	25.80863
827.934	25.54658
828.33	25.19866
828.725	25.32488
829.121	25.09965
829.516	24.98077
829.912	25.08826
830.307	24.44804
830.703	24.84797
831.098	24.89883
831.493	24.69208
831.888	25.17887
832.283	24.8033
832.678	24.55753
833.073	25.05756
833.468	24.74257
833.863	25.48548
834.258	25.7381
834.653	25.34113
835.048	25.57688
835.442	25.45063
835.837	25.07104
836.231	25.50965
836.626	25.22238
837.02	25.16264
837.415	25.55474
837.809	25.1615
838.203	25.72679
838.597	25.61096
838.991	24.53265
839.385	25.14592
839.779	25.64207
840.173	24.53226
840.567	25.5239
840.961	26.12768
841.355	25.15233
841.748	25.65865
842.142	26.20584
842.536	25.5681
842.929	26.04975
843.323	25.96931
843.716	25.69735
844.109	26.56674
844.503	25.72451
844.896	25.56004
845.289	26.45518
845.682	25.91469
846.075	26.92593
846.468	26.46013
846.861	25.34324
847.254	26.30982
847.647	26.50297
848.04	25.41699
848.432	25.94487
848.825	25.57747
849.217	26.08193
849.61	26.04744
850.002	26.44936
850.395	25.54806
850.787	26.38196
851.179	25.49591
851.572	25.87841
851.964	26.06
852.356	25.61044
852.748	25.9752
853.14	26.0811
853.532	25.81896
853.924	26.60407
854.315	26.54481
854.707	26.16328
855.099	26.50431
855.491	27.12279
855.882	25.3033
856.274	26.68471
856.665	25.74824
857.056	25.03639
857.448	25.26461
857.839	25.98517
858.23	26.04826
858.621	26.10541
859.012	25.85063
859.403	24.68064
859.794	25.59237
860.185	26.08148
860.576	26.40588
860.967	25.88811
861.358	26.66256
861.748	24.80376
862.139	25.58418
862.529	25.64348
862.92	25.47481
863.31	25.49865
863.701	26.21638
864.091	24.62124
864.481	25.82411
864.872	26.12197
865.262	25.38584
865.652	25.81452
866.042	25.6504
866.432	24.8358
866.822	26.2619
867.211	25.75806
867.601	24.90769
867.991	25.26523
868.381	25.22566
868.77	25.09252
869.16	25.57648
869.549	25.02929
869.939	25.05377
870.328	25.4629
870.717	25.07174
871.106	24.91108
871.496	25.07849
871.885	24.78485
872.274	24.29343
872.663	25.53576
873.052	25.33909
873.441	24.84603
873.829	25.06606
874.218	25.87922
874.607	24.80521
874.996	25.38994
875.384	25.7597
875.773	25.21302
876.161	25.41588
876.549	25.28908
876.938	25.6151
877.326	25.19622
877.714	25.10428
878.102	24.66558
878.491	24.70935
878.879	25.55007
879.267	24.67993
879.655	24.77065
880.042	25.53673
880.43	25.2505
880.818	25.0603
881.206	25.78418
881.593	25.77694
881.981	24.92292
882.368	25.58051
882.756	25.7307
883.143	25.2397
883.53	25.91302
883.918	25.95047
884.305	25.2274
884.692	25.25705
885.079	25.50314
885.466	25.22632
885.853	25.08904
886.24	25.71747
886.627	25.05755
887.014	24.85533
887.4	25.94768
887.787	25.32262
888.174	24.90749
888.56	25.59288
888.947	25.24643
889.333	24.68977
889.719	25.57934
890.106	24.74879
890.492	25.16878
890.878	24.89211
891.264	24.93611
891.65	24.92054
892.036	24.8217
892.422	25.06277
892.808	24.54711
893.194	24.13348
893.58	24.7908
893.965	24.50542
894.351	24.22104
894.736	24.68917
895.122	24.75308
895.507	24.34948
895.893	24.61182
896.278	25.06809
896.663	24.08487
897.049	24.41175
897.434	25.13406
897.819	24.57014
898.204	24.82241
898.589	24.68053
898.974	24.77458
899.359	24.72187
899.743	25.2506
900.128	24.911
900.513	24.80258
900.897	25.17526
901.282	24.88377
901.667	24.07448
902.051	24.25082
902.435	24.92335
902.82	24.17573
903.204	23.74001
903.588	24.58713
903.972	24.62899
904.356	24.55325
904.74	24.14258
905.124	24.48287
905.508	24.73293
905.892	24.65621
906.276	25.18186
906.659	25.15383
907.043	24.8696
907.427	25.29374
907.81	24.6059
908.194	24.67609
908.577	25.28785
908.96	24.79846
909.344	24.26602
909.727	23.55042
910.11	25.04204
910.493	23.89747
910.876	23.92433
911.259	23.99126
911.642	24.33265
912.025	23.40215
912.408	23.98796
912.79	24.69939
913.173	23.46086
913.556	23.10064
913.938	24.2901
914.321	23.87371
914.703	22.96336
915.086	23.75827
915.468	23.96701
915.85	23.55106
916.232	23.0763
916.614	23.60397
916.996	24.47145
917.378	23.73545
917.76	23.84449
918.142	24.09244
918.524	23.99845
918.906	24.33249
919.288	25.01366
919.669	24.48274
920.051	24.06049
920.432	24.11094
920.814	24.45597
921.195	24.94186
921.577	24.15214
921.958	24.58134
922.339	24.71258
922.72	24.36386
923.101	24.71409
923.482	25.76568
923.863	23.86053
924.244	23.49474
924.625	24.28705
925.006	25.03445
925.387	24.74332
925.767	24.31566
926.148	25.43696
926.528	24.1298
926.909	23.82216
927.289	24.36632
927.67	24.76734
928.05	24.05455
928.43	24.07267
928.81	24.80847
929.191	24.23171
929.571	23.22227
929.951	22.73707
930.331	23.62696
930.71	24.25251
931.09	23.08753
931.47	25.02317
931.85	24.30486
932.229	23.93288
932.609	24.04721
932.988	23.21744
933.368	23.59164
933.747	24.29417
934.127	25.37286
934.506	24.15284
934.885	23.83376
935.264	24.86057
935.643	23.92117
936.022	23.66437
936.401	23.62202
936.78	24.16463
937.159	23.44712
937.538	23.03261
937.916	23.67883
938.295	24.68722
938.674	23.44689
939.052	23.30004
939.431	25.11692
939.809	23.7747
940.187	23.71792
940.566	22.32263
940.944	24.66596
941.322	23.614
941.7	21.82106
942.078	24.36936
942.456	23.3408
942.834	24.23428
943.212	23.53803
943.59	24.35596
943.968	23.89523
944.345	24.3335
944.723	24.58035
945.1	23.29355
945.478	23.87368
945.855	23.77814
946.233	24.65762
946.61	25.08193
946.987	23.87915
947.365	23.16739
947.742	22.84204
948.119	23.31699
948.496	22.76709
948.873	22.8415
949.25	25.21668
949.626	23.59506
950.003	22.47387
950.38	22.18179
950.756	24.61736
951.133	24.87488
951.51	24.12955
951.886	23.33533
952.262	22.36306
952.639	23.58431
953.015	22.05433
953.391	24.09923
953.767	22.72694
954.143	23.18581
954.519	22.79203
954.895	23.69184
955.271	21.4417
955.647	22.39847
956.023	23.68921
956.399	23.54588
956.774	25.26355
957.15	23.81616
957.525	23.23302
957.901	23.09954
958.276	23.76322
958.652	23.18763
959.027	24.35289
959.402	21.62267
959.777	21.95003
960.152	23.16649
960.527	22.75243
960.902	24.02606
961.277	20.91503
961.652	22.03137
962.027	25.0545
962.402	22.07718
962.776	22.45957
963.151	20.09394
963.525	21.93191
963.9	23.04601
964.274	23.15407
964.649	21.90371
965.023	22.05759
965.397	24.63189
965.771	21.27808
966.146	20.92308
966.52	19.05695
966.894	22.43463
967.268	22.57828
967.641	22.58763
968.015	21.77923
968.389	23.35565
968.763	20.75159
969.136	21.86772
969.51	21.91186
969.883	21.25301
970.257	23.5249
970.63	22.79731
971.003	21.46092
971.377	22.03446
971.75	21.03953
972.123	23.21827
972.496	23.30529
972.869	22.37329
973.242	22.92046
973.615	21.83072
973.988	21.63373
974.36	22.2651
974.733	21.72703
975.106	22.00009
975.478	22.70549
975.851	22.70379
976.223	20.75752
976.596	20.08494
976.968	23.02403
977.34	21.84492
977.712	21.48306
978.085	19.63852
978.457	21.55629
978.829	21.63271
979.201	21.49203
979.573	20.87507
979.944	21.25769
980.316	20.52022
980.688	21.52178
981.059	21.55008
981.431	19.98627
981.803	20.11206
982.174	21.95433
982.545	20.81423
982.917	22.19682
983.288	22.83802
983.659	20.9306
984.03	20.45283
984.401	20.047
984.772	22.37347
985.143	23.0261
985.514	21.66799
985.885	21.94079
986.256	20.55133
986.627	20.92155
986.997	21.86513
987.368	21.8907
987.738	20.35695
988.109	21.14418
988.479	22.03109
988.85	19.19272
989.22	21.06295
989.59	21.29608
989.96	18.63798
990.33	19.7471
990.7	20.15037
991.07	20.52914
991.44	19.46521
991.81	21.08407
992.18	19.45688
992.549	21.91676
992.919	21.01766
993.289	20.87228
993.658	20.86967
994.028	19.83075
994.397	19.97268
994.766	20.46317
995.136	19.74409
995.505	20.32479
995.874	20.92127
996.243	17.86674
996.612	20.78096
996.981	21.89303
997.35	21.32299
997.719	23.16563
998.088	21.1258
998.456	18.7419
998.825	20.34624
999.194	21.59451
999.562	20.71931
999.931	22.6729
1000.299	21.88645
1000.667	19.05663
1001.036	19.37627
1001.404	20.01823
1001.772	24.7681
1002.14	20.60711
1002.508	17.82746
1002.876	22.80469
1003.244	19.90049
1003.612	21.31844
1003.98	19.72675
1004.347	22.4973
1004.715	21.93087
1005.083	20.17464
1005.45	18.72871
1005.818	21.58098
1006.185	21.00117
1006.552	19.47608
1006.92	21.6698
1007.287	17.92142
1007.654	21.96073
1008.021	23.40514
1008.388	23.29539
1008.755	21.68318
1009.122	19.52935
1009.489	20.18255
1009.856	18.85443
1010.222	17.45282
1010.589	19.96534
1010.956	21.35445
1011.322	24.15535
1011.689	20.02236
1012.055	17.83965
1012.421	16.99473
1012.788	21.20716
1013.154	15.923
1013.52	25.04615
1013.886	21.74457
1014.252	20.22116
1014.618	20.9833
1014.984	19.14352
1015.35	23.78824
1015.716	17.79327
1016.081	22.13425
1016.447	25.01047
1016.813	21.32495
1017.178	20.58219
1017.544	23.10298
1017.909	20.65288
1018.274	23.68888
1018.64	21.94092
1019.005	17.40493
1019.37	21.63303
1019.735	20.63385
1020.1	19.92558
1020.465	14.3481
1020.83	22.0319
1021.195	20.82446
1021.56	21.43943
1021.924	18.54144
1022.289	17.2291
1022.654	21.03091
1023.018	22.75131
1023.383	19.77029
1023.747	21.54824
1024.111	23.67103
1024.476	16.77177
1024.84	28.04752
1025.204	20.69845
1025.568	23.46616
1025.932	24.11325
1026.296	24.98212
1026.66	29.78626
1027.024	17.94495
1027.387	19.45505
1027.751	19.72261
1028.115	18.62671
1028.478	17.74536
1028.842	26.24372
1029.205	25.61236
1029.569	20.35215
1029.932	22.18287
1030.295	18.10651
1030.659	17.6765
1031.022	22.72421
1031.385	25.35429
1031.748	17.88412
1032.111	19.88786
1032.474	20.48079
1032.836	20.07866
1033.199	23.20788
1033.562	10.37579
1033.924	19.13216
1034.287	27.47865
1034.65	24.50404
1035.012	27.43693
1035.374	22.37656
1035.737	24.7586
1036.099	24.483
1036.461	20.55039
1036.823	25.8511
1037.185	22.49731
1037.547	15.6838
1037.909	21.81751
1038.271	26.14964
1038.633	23.78218
1038.995	35.2445
1039.356	27.01548
1039.718	30.05527
1040.08	33.65341
1040.441	13.9862
1040.803	27.53671
1041.164	12.44832
1041.525	13.05188
1041.886	9.95423
1042.248	20.99015
1042.609	22.25685
1042.97	26.41779
1043.331	25.45107
1043.692	24.5115
1044.053	37.70869
1044.413	30.30434
1044.774	23.58597
1045.135	15.7018
1045.495	26.65739
1045.856	29.40337
1046.216	20.70063
1046.577	23.82407
1046.937	19.50581
1047.298	29.80747
