Data from 1015water_Reflection__7__16-51-21-321.txt Node

Date: Wed Oct 15 16:51:21 AST 2025
User: lin
Spectrometer: SR600411
Trigger mode: 0
Integration Time (sec): 5.819800E-2
Scans to average: 5
Nonlinearity correction enabled: true
Boxcar width: 0
Storing dark spectrum: false
XAxis mode: Wavelengths
Number of Pixels in Spectrum: 2048
>>>>>Begin Spectral Data<<<<<
187.982	47.60553
188.456	68.25403
188.93	54.13774
189.403	54.5556
189.877	59.183
190.351	56.44824
190.825	52.67437
191.298	61.39011
191.772	35.13563
192.246	55.74975
192.719	60.65351
193.193	68.46421
193.666	67.25456
194.139	56.12068
194.613	46.73803
195.086	61.49837
195.559	61.88905
196.033	50.96511
196.506	73.53973
196.979	65.49907
197.452	62.25149
197.925	63.47828
198.398	58.48076
198.871	57.3693
199.344	59.67224
199.816	52.49061
200.289	64.48117
200.762	61.93634
201.235	61.52686
201.707	62.32146
202.18	54.75158
202.652	73.54966
203.125	64.19651
203.597	64.58897
204.07	46.14744
204.542	65.58306
205.014	47.32591
205.486	57.88555
205.959	63.56922
206.431	49.73642
206.903	53.19742
207.375	49.41007
207.847	40.10455
208.319	72.04325
208.791	57.79509
209.263	56.95818
209.734	53.384
210.206	46.66074
210.678	26.99609
211.15	70.3259
211.621	50.99504
212.093	49.1874
212.564	42.23576
213.036	46.69077
213.507	48.07177
213.979	89.54975
214.45	34.10277
214.921	55.38886
215.392	36.45392
215.864	52.98567
216.335	71.81376
216.806	74.66385
217.277	59.51778
217.748	91.12704
218.219	44.95912
218.69	40.9017
219.161	51.08239
219.631	54.88068
220.102	80.43191
220.573	68.91263
221.043	44.08827
221.514	61.79358
221.985	28.56859
222.455	38.19391
222.926	31.76105
223.396	58.32812
223.866	39.33848
224.337	61.31576
224.807	27.0444
225.277	57.77342
225.747	47.86768
226.217	71.04797
226.687	57.35808
227.157	69.91356
227.627	38.22892
228.097	44.51339
228.567	64.59663
229.037	41.06605
229.507	55.13493
229.977	55.93706
230.446	41.21507
230.916	56.47621
231.386	52.57252
231.855	52.24676
232.325	67.1847
232.794	83.03258
233.263	44.16079
233.733	97.01454
234.202	53.05638
234.671	75.4505
235.14	54.42649
235.61	57.93041
236.079	54.73217
236.548	38.05343
237.017	48.10795
237.486	58.9952
237.955	52.27055
238.424	58.89709
238.892	50.61326
239.361	57.79288
239.83	28.7321
240.299	75.50661
240.767	98.64845
241.236	36.21464
241.704	92.40396
242.173	47.43204
242.641	47.78201
243.109	65.32996
243.578	51.76606
244.046	54.44001
244.514	53.11867
244.982	49.06871
245.451	50.95637
245.919	80.94916
246.387	42.61702
246.855	51.88154
247.323	46.66222
247.791	71.79017
248.258	79.26562
248.726	14.75105
249.194	45.56573
249.662	14.28367
250.129	42.72193
250.597	14.03372
251.064	59.73658
251.532	68.41698
251.999	77.88106
252.467	137.81335
252.934	46.2056
253.401	80.88027
253.869	48.86558
254.336	75.4505
254.803	10.67766
255.27	33.92358
255.737	3.12462
256.204	30.27066
256.671	28.88522
257.138	53.12183
257.605	96.15308
258.072	12.96054
258.539	45.87816
259.005	28.12114
259.472	43.92
259.939	49.5186
260.405	56.94094
260.872	20.78878
261.338	1.96059
261.805	59.25408
262.271	65.54088
262.737	83.7186
263.203	15.25272
263.67	69.83863
264.136	58.69122
264.602	31.35089
265.068	91.93457
265.534	46.99505
266	43.95984
266.466	34.44041
266.932	75.32183
267.398	28.20042
267.864	75.75397
268.329	37.75053
268.795	43.42952
269.261	64.70126
269.726	63.10203
270.192	60.80731
270.657	69.22692
271.123	44.08147
271.588	53.482
272.053	73.60833
272.519	52.53652
272.984	47.49406
273.449	46.54599
273.914	30.76538
274.379	43.39105
274.844	60.18004
275.309	70.0806
275.774	56.0395
276.239	58.13538
276.704	73.1046
277.169	79.11789
277.634	49.99424
278.098	35.29026
278.563	71.2299
279.028	-7.14201
279.492	45.59384
279.957	30.55252
280.421	32.78155
280.886	24.67248
281.35	28.42725
281.814	61.72459
282.279	83.54215
282.743	60.23701
283.207	51.4251
283.671	82.66453
284.135	40.90381
284.599	71.42488
285.063	78.17996
285.527	55.76413
285.991	37.28265
286.455	77.64413
286.919	18.31672
287.382	53.25632
287.846	85.13328
288.31	23.32907
288.773	88.88765
289.237	53.67952
289.7	67.27032
290.164	57.25204
290.627	73.8063
291.09	33.74645
291.554	94.99906
292.017	23.4539
292.48	47.26728
292.943	25.97109
293.406	42.71344
293.869	48.07434
294.332	61.28594
294.795	58.26159
295.258	91.02438
295.721	54.34103
296.184	61.85112
296.646	56.8909
297.109	38.23051
297.572	43.17753
298.034	41.02189
298.497	43.74687
298.959	25.7103
299.422	41.32972
299.884	-2.73932
300.346	33.92608
300.809	104.87888
301.271	24.38724
301.733	70.3659
302.195	76.74114
302.657	49.01455
303.119	67.81232
303.581	51.51188
304.043	49.99414
304.505	-20.33611
304.967	83.07511
305.429	38.19807
305.891	71.42517
306.352	51.27624
306.814	109.59057
307.275	46.06303
307.737	71.27277
308.198	59.11751
308.66	64.70126
309.121	65.97506
309.583	49.99742
310.044	57.13673
310.505	25.80291
310.966	70.45091
311.428	41.76834
311.889	59.4011
312.35	82.75698
312.811	60.56001
313.272	29.80338
313.733	24.99628
314.193	-633.49742
314.654	63.88559
315.115	44.44047
315.576	45.53958
316.036	37.0939
316.497	56.24844
316.957	29.62739
317.418	43.63368
317.878	16.66468
318.339	62.95921
318.799	37.49665
319.259	20.78878
319.72	47.99504
320.18	66.28818
320.64	52.87947
321.1	82.14041
321.56	37.49665
322.02	13.41274
322.48	55.55114
322.94	62.96046
323.4	25.67287
323.86	92.53639
324.319	35.99543
324.779	80.26077
325.239	75.33977
325.698	55.5507
326.158	71.67686
326.617	63.91309
327.077	75.8589
327.536	22.09008
327.996	57.7756
328.455	59.78918
328.914	57.5307
329.373	50.50014
329.832	21.94843
330.292	7.69157
330.751	56.24609
331.21	63.99543
331.668	70.58473
332.127	51.71982
332.586	57.29904
333.045	60.41211
333.504	47.53494
333.962	28.06789
334.421	69.78765
334.88	-10.25554
335.338	49.50945
335.797	80.27946
336.255	27.27013
336.714	28.84191
337.172	68.67115
337.63	47.86768
338.088	66.24645
338.547	30.43188
339.005	37.03328
339.463	77.0604
339.921	67.00606
340.379	80.20531
340.837	65.55152
341.295	60.82015
341.753	41.37652
342.21	75.24379
342.668	53.12025
343.126	64.12623
343.584	47.61489
344.041	39.08571
344.499	69.44141
344.956	41.66435
345.414	59.99309
345.871	33.33082
346.328	52.67303
346.786	48.50984
347.243	63.37701
347.7	29.48396
348.157	64.65562
348.614	60.22309
349.071	7.31597
349.528	18.8647
349.985	57.57096
350.442	61.94161
350.899	54.64693
351.356	59.31638
351.812	73.25247
352.269	36.83859
352.726	100
353.182	19.73445
353.639	84.61404
354.095	38.45604
354.552	48.20873
355.008	49.13218
355.465	44.85456
355.921	6.17191
356.377	32.40272
356.833	60.94742
357.289	40.18181
357.745	52.82494
358.201	57.49418
358.657	49.99563
359.113	57.97744
359.569	52.16594
360.025	59.28662
360.481	32.37639
360.937	48.52953
361.392	49.7024
361.848	43.59627
362.303	36.86761
362.759	52.85222
363.214	54.82805
363.67	63.9714
364.125	46.86237
364.581	50.7387
365.036	36.79058
365.491	68.46646
365.946	53.8557
366.401	56.75546
366.856	50.11639
367.311	57.34133
367.766	57.94679
368.221	53.29692
368.676	58.47229
369.131	51.83218
369.586	56.78855
370.041	49.54238
370.495	47.86596
370.95	53.18276
371.404	57.37946
371.859	53.02273
372.313	54.05656
372.768	53.52748
373.222	50.94658
373.676	51.11904
374.131	57.01227
374.585	55.09509
375.039	56.1151
375.493	57.61704
375.947	54.12451
376.401	55.46011
376.855	56.89673
377.309	55.71367
377.763	55.02441
378.217	55.53379
378.67	52.44486
379.124	56.32366
379.578	53.70814
380.031	54.593
380.485	56.04116
380.938	52.73131
381.392	54.98176
381.845	54.7473
382.299	56.44203
382.752	54.79593
383.205	56.09283
383.658	53.86053
384.111	56.10201
384.564	56.26196
385.018	56.24118
385.471	56.10595
385.923	56.99899
386.376	54.72435
386.829	55.52244
387.282	55.66422
387.735	55.89314
388.187	55.61956
388.64	56.35427
389.093	55.08674
389.545	55.91137
389.998	56.10156
390.45	55.65332
390.902	55.83636
391.355	56.74492
391.807	57.44221
392.259	55.88888
392.711	56.515
393.163	56.1616
393.615	56.12168
394.068	55.91367
394.519	55.74323
394.971	56.2497
395.423	56.5896
395.875	55.89618
396.327	56.36488
396.779	56.24083
397.23	55.78877
397.682	56.38105
398.133	55.98909
398.585	55.97464
399.036	55.62054
399.488	55.44615
399.939	55.84013
400.39	55.2147
400.842	55.76842
401.293	56.04953
401.744	55.06112
402.195	55.37665
402.646	54.75931
403.097	54.9996
403.548	54.72452
403.999	54.51358
404.45	54.6246
404.9	54.81657
405.351	54.9268
405.802	55.23585
406.253	54.59771
406.703	54.02849
407.154	53.87597
407.604	54.41792
408.055	53.70984
408.505	53.56816
408.955	53.46145
409.406	52.63749
409.856	53.23388
410.306	52.70339
410.756	52.73499
411.206	53.27332
411.656	53.10439
412.106	52.47396
412.556	52.21725
413.006	52.46287
413.456	51.13676
413.905	51.01185
414.355	50.89832
414.805	50.98001
415.254	51.34058
415.704	50.55306
416.153	50.85528
416.603	50.44499
417.052	50.42623
417.502	50.65242
417.951	49.59012
418.4	50.06925
418.849	50.08717
419.298	49.77152
419.748	49.63325
420.197	49.66066
420.646	49.37025
421.094	49.59237
421.543	49.89167
421.992	49.44342
422.441	49.31992
422.89	48.32845
423.338	48.75634
423.787	48.55552
424.236	48.09962
424.684	48.6173
425.133	48.05352
425.581	47.90972
426.029	47.82482
426.478	47.42456
426.926	47.3981
427.374	47.64224
427.822	47.70107
428.27	47.36568
428.718	47.11325
429.166	47.31496
429.614	47.35625
430.062	47.38749
430.51	46.92465
430.958	46.84568
431.406	46.69924
431.853	46.78616
432.301	46.2475
432.749	47.03389
433.196	46.32249
433.644	46.50185
434.091	45.93789
434.538	46.07922
434.986	46.26708
435.433	46.04994
435.88	46.18271
436.327	46.87547
436.775	46.28724
437.222	45.77874
437.669	45.51439
438.116	45.97966
438.563	45.464
439.009	46.12596
439.456	45.82407
439.903	45.90806
440.35	44.98515
440.796	45.57264
441.243	45.45485
441.689	45.78381
442.136	45.44527
442.582	45.55783
443.029	45.38642
443.475	45.27293
443.921	45.0554
444.368	45.25071
444.814	45.61104
445.26	45.56621
445.706	45.5609
446.152	45.57796
446.598	45.72103
447.044	45.24509
447.49	45.73849
447.936	45.37922
448.381	45.44118
448.827	45.7021
449.273	45.7558
449.718	45.55493
450.164	45.58598
450.61	45.43396
451.055	45.48968
451.5	46.0915
451.946	45.68119
452.391	45.91639
452.836	45.82656
453.282	45.82896
453.727	45.8804
454.172	45.94986
454.617	46.2485
455.062	45.82198
455.507	46.42966
455.952	46.32725
456.396	45.93389
456.841	46.43796
457.286	46.03894
457.731	46.39915
458.175	46.42343
458.62	46.34212
459.064	46.47637
459.509	46.54892
459.953	46.67836
460.398	47.00987
460.842	46.83328
461.286	47.12327
461.73	47.55334
462.174	47.32496
462.619	47.32902
463.063	47.08469
463.507	47.33759
463.951	47.7177
464.394	47.89534
464.838	47.94888
465.282	48.14933
465.726	48.51053
466.17	48.21072
466.613	48.33285
467.057	48.39134
467.5	48.66128
467.944	48.64829
468.387	48.84637
468.831	49.30342
469.274	49.55665
469.717	49.77351
470.16	49.96759
470.603	49.74586
471.047	50.3469
471.49	50.51428
471.933	50.39518
472.376	50.64252
472.818	51.04784
473.261	51.33315
473.704	51.32693
474.147	51.71004
474.59	51.49464
475.032	51.67855
475.475	52.06919
475.917	51.80053
476.36	52.32575
476.802	52.80947
477.245	52.59167
477.687	52.75656
478.129	53.28626
478.571	53.34168
479.013	53.71931
479.456	53.50408
479.898	53.97663
480.34	54.09033
480.782	54.18418
481.224	54.09708
481.665	54.21574
482.107	54.41787
482.549	54.84202
482.991	54.65039
483.432	54.57313
483.874	54.87747
484.315	55.14155
484.757	55.24946
485.198	55.18311
485.64	55.20039
486.081	55.8239
486.522	56.24449
486.963	55.72191
487.405	56.02953
487.846	56.82491
488.287	56.36927
488.728	56.27436
489.169	56.15097
489.61	56.51877
490.05	56.25536
490.491	56.37708
490.932	56.54449
491.373	56.61132
491.813	56.71937
492.254	56.27048
492.694	57.04456
493.135	56.72892
493.575	56.63307
494.016	56.88417
494.456	57.26809
494.896	57.00073
495.336	57.43651
495.777	57.76969
496.217	57.68166
496.657	57.92745
497.097	58.14283
497.537	58.29644
497.977	58.27936
498.416	58.53199
498.856	58.38911
499.296	58.16941
499.736	58.5777
500.175	58.17713
500.615	58.63766
501.054	58.53485
501.494	58.95308
501.933	58.88971
502.373	59.30527
502.812	59.19922
503.251	59.45706
503.69	59.41192
504.129	59.53514
504.569	60.11065
505.008	60.11577
505.447	60.34495
505.886	60.24012
506.324	60.78867
506.763	60.64522
507.202	61.65786
507.641	61.24224
508.079	61.33308
508.518	62.06219
508.957	62.27529
509.395	61.87927
509.834	62.7309
510.272	62.99122
510.71	62.85037
511.149	63.39184
511.587	63.18776
512.025	63.94617
512.463	63.94816
512.901	63.88291
513.339	64.24355
513.777	64.92829
514.215	63.81621
514.653	64.86399
515.091	64.96401
515.529	65.51897
515.966	65.71022
516.404	65.99429
516.842	65.93732
517.279	66.38232
517.717	66.55062
518.154	65.99382
518.592	66.82009
519.029	66.82801
519.466	66.9199
519.904	67.58486
520.341	67.21325
520.778	68.3431
521.215	68.33742
521.652	68.616
522.089	69.11709
522.526	68.9193
522.963	69.36019
523.399	69.52511
523.836	69.76484
524.273	70.19773
524.71	70.5209
525.146	70.56847
525.583	70.84869
526.019	70.34462
526.456	70.79136
526.892	71.13394
527.328	71.24622
527.765	71.61881
528.201	71.40202
528.637	71.90648
529.073	72.00073
529.509	72.80383
529.945	72.725
530.381	72.65172
530.817	72.66489
531.253	73.03029
531.689	73.5904
532.124	73.27446
532.56	73.80443
532.996	73.74786
533.431	73.53966
533.867	74.19274
534.302	73.81218
534.738	74.01428
535.173	74.45687
535.608	75.24056
536.044	74.69393
536.479	75.00885
536.914	75.52339
537.349	75.58108
537.784	74.9489
538.219	75.46168
538.654	74.97281
539.089	75.62619
539.524	75.34941
539.959	75.46062
540.393	75.34572
540.828	76.17124
541.263	75.71852
541.697	75.97427
542.132	76.34365
542.566	76.34428
543.001	76.35787
543.435	75.75417
543.869	75.26698
544.303	76.35677
544.738	76.37469
545.172	76.27978
545.606	76.48282
546.04	76.11519
546.474	76.58653
546.908	75.57932
547.342	76.02254
547.775	76.00685
548.209	75.78391
548.643	75.53765
549.077	76.38271
549.51	75.95134
549.944	76.19119
550.377	75.66805
550.811	75.61363
551.244	75.68304
551.677	75.49011
552.111	75.31692
552.544	75.50447
552.977	75.76678
553.41	75.24565
553.843	75.36116
554.276	74.77922
554.709	74.50145
555.142	74.34711
555.575	73.69916
556.008	74.13071
556.44	73.70939
556.873	73.15457
557.306	73.4868
557.738	73.15096
558.171	73.26445
558.603	73.38886
559.036	72.95722
559.468	72.47605
559.9	72.05683
560.333	71.82147
560.765	71.74306
561.197	71.72573
561.629	71.53407
562.061	70.94285
562.493	70.73213
562.925	70.50646
563.357	70.65357
563.789	70.06983
564.22	70.53419
564.652	69.52613
565.084	69.95029
565.515	69.07171
565.947	68.41867
566.378	68.768
566.81	68.12464
567.241	68.22579
567.672	68.05283
568.104	67.9657
568.535	67.5204
568.966	67.43468
569.397	67.22367
569.828	66.70509
570.259	67.01392
570.69	66.0275
571.121	65.81785
571.552	65.54867
571.983	65.12122
572.414	65.21033
572.844	64.98038
573.275	64.73506
573.705	64.41145
574.136	64.32782
574.566	64.40203
574.997	64.1056
575.427	63.92713
575.857	63.56248
576.288	63.01657
576.718	63.51672
577.148	62.50679
577.578	62.56849
578.008	62.23586
578.438	61.989
578.868	61.76075
579.298	61.53347
579.728	61.37617
580.157	60.74177
580.587	60.07211
581.017	60.16852
581.446	60.02985
581.876	59.66296
582.305	59.7515
582.735	59.45951
583.164	58.73832
583.593	58.44139
584.023	58.69478
584.452	58.16002
584.881	57.61113
585.31	57.83665
585.739	57.79659
586.168	57.78446
586.597	57.51092
587.026	57.67138
587.455	57.566
587.884	57.32442
588.312	57.47299
588.741	56.42238
589.17	56.64938
589.598	56.559
590.027	56.34719
590.455	55.81394
590.884	55.83326
591.312	55.47813
591.74	55.8856
592.168	55.20372
592.597	54.90707
593.025	54.7612
593.453	54.6528
593.881	54.18253
594.309	53.95802
594.737	53.57508
595.165	53.45507
595.592	53.17593
596.02	53.42034
596.448	52.79768
596.875	52.62671
597.303	53.03345
597.73	52.63588
598.158	52.18297
598.585	52.3973
599.013	51.63878
599.44	51.78326
599.867	51.5379
600.294	51.60387
600.722	51.16126
601.149	51.50834
601.576	51.28029
602.003	51.37513
602.43	51.04877
602.856	51.02206
603.283	51.37073
603.71	50.90041
604.137	50.37
604.563	50.59958
604.99	49.86738
605.416	49.63778
605.843	49.39672
606.269	49.60678
606.696	49.32881
607.122	49.18515
607.548	49.71144
607.975	49.49766
608.401	49.44059
608.827	49.14544
609.253	49.25349
609.679	48.979
610.105	48.30465
610.531	48.43779
610.956	48.27841
611.382	48.54039
611.808	48.44406
612.234	48.36093
612.659	48.18063
613.085	48.42297
613.51	48.39693
613.936	47.98573
614.361	47.54089
614.786	47.80493
615.212	47.51665
615.637	47.49411
616.062	47.27892
616.487	47.0856
616.912	47.69164
617.337	47.54188
617.762	47.63605
618.187	47.20872
618.612	47.36233
619.037	46.80575
619.461	47.21131
619.886	47.1957
620.311	46.86809
620.735	47.13835
621.16	46.83546
621.584	46.95074
622.008	46.91729
622.433	46.5421
622.857	46.6708
623.281	46.67936
623.705	46.7694
624.13	46.86562
624.554	46.1364
624.978	46.89764
625.402	46.46118
625.826	46.82099
626.249	46.6701
626.673	46.38434
627.097	46.79591
627.521	46.62844
627.944	46.47364
628.368	46.75286
628.791	46.65219
629.215	46.80716
629.638	46.68798
630.061	46.72273
630.485	46.815
630.908	46.5939
631.331	46.83475
631.754	47.15625
632.177	46.73344
632.6	46.30628
633.023	46.91954
633.446	47.22543
633.869	47.40518
634.292	47.78092
634.715	47.68545
635.137	47.66283
635.56	47.66854
635.982	48.07704
636.405	47.86319
636.827	48.13492
637.25	48.1575
637.672	47.90283
638.094	48.43315
638.517	48.28851
638.939	48.20828
639.361	48.89433
639.783	48.8494
640.205	49.27535
640.627	49.15187
641.049	49.38879
641.471	49.65991
641.893	49.30724
642.314	49.6691
642.736	49.9598
643.158	50.04286
643.579	50.04778
644.001	49.85785
644.422	49.47493
644.844	50.28623
645.265	50.12369
645.686	50.37904
646.107	49.87525
646.529	50.48527
646.95	50.7138
647.371	51.11273
647.792	50.84335
648.213	51.00686
648.634	51.50631
649.055	51.29049
649.475	51.7953
649.896	51.82417
650.317	51.7717
650.737	52.26656
651.158	52.24789
651.578	52.63247
651.999	52.65762
652.419	52.71941
652.84	53.26343
653.26	52.79068
653.68	53.82812
654.1	53.35753
654.521	53.81479
654.941	53.68825
655.361	54.63603
655.781	54.31163
656.2	54.87801
656.62	54.12656
657.04	55.12102
657.46	54.78148
657.879	55.38743
658.299	55.05409
658.719	56.51425
659.138	55.38117
659.558	56.27978
659.977	56.1588
660.396	56.62816
660.816	56.40324
661.235	56.87663
661.654	56.43434
662.073	57.13986
662.492	57.28193
662.911	57.49609
663.33	57.4173
663.749	57.38631
664.168	57.59453
664.587	57.64654
665.006	57.84368
665.424	58.47302
665.843	58.60491
666.261	58.74394
666.68	58.56013
667.098	59.20575
667.517	59.48815
667.935	58.88048
668.353	59.1317
668.772	59.26452
669.19	59.11603
669.608	59.58142
670.026	59.30815
670.444	59.71301
670.862	59.45569
671.28	59.66061
671.698	59.90606
672.115	59.61221
672.533	59.9423
672.951	60.00944
673.368	60.23821
673.786	59.45122
674.203	60.10346
674.621	59.11114
675.038	59.74482
675.456	60.35515
675.873	59.78291
676.29	60.02113
676.707	59.1868
677.124	59.28155
677.541	60.07328
677.958	59.1414
678.375	59.37561
678.792	59.48562
679.209	58.7879
679.626	59.78797
680.043	59.29475
680.459	60.23419
680.876	59.54839
681.292	59.55589
681.709	59.24051
682.125	59.22858
682.542	59.38658
682.958	58.8394
683.374	59.60492
683.79	59.27155
684.207	59.68857
684.623	58.77433
685.039	59.39569
685.455	58.93561
685.871	58.41067
686.286	58.83557
686.702	58.3975
687.118	58.55629
687.534	58.39178
687.949	57.91277
688.365	58.14605
688.781	57.82113
689.196	57.63849
689.611	57.28116
690.027	57.36989
690.442	57.31481
690.857	57.3093
691.273	56.92345
691.688	56.49557
692.103	56.90544
692.518	56.3769
692.933	56.44051
693.348	55.79483
693.763	55.92145
694.177	55.19564
694.592	55.59481
695.007	55.2146
695.421	55.17048
695.836	54.68409
696.25	54.3011
696.665	53.83579
697.079	54.10385
697.494	54.05349
697.908	53.03781
698.322	53.54888
698.736	53.02306
699.151	53.29557
699.565	52.25068
699.979	52.02747
700.393	52.17555
700.806	52.26503
701.22	51.90597
701.634	51.63462
702.048	51.7653
702.461	51.15937
702.875	50.82386
703.289	50.19713
703.702	50.71691
704.116	49.9236
704.529	49.8938
704.942	49.24114
705.356	49.3164
705.769	48.86844
706.182	48.73838
706.595	47.90332
707.008	47.86402
707.421	47.61034
707.834	47.27493
708.247	46.93038
708.66	46.68935
709.072	47.13569
709.485	45.82867
709.898	46.28819
710.31	45.53861
710.723	45.74484
711.135	44.9426
711.548	44.73377
711.96	44.39157
712.373	44.27391
712.785	44.1624
713.197	43.96459
713.609	43.40416
714.021	43.03404
714.433	42.67741
714.845	42.74775
715.257	42.25833
715.669	42.36885
716.081	41.98705
716.493	41.60299
716.904	41.28384
717.316	40.94885
717.727	40.46803
718.139	40.29236
718.55	40.27287
718.962	39.95447
719.373	39.53994
719.784	39.27056
720.196	39.33982
720.607	38.93933
721.018	38.46818
721.429	38.16439
721.84	38.3906
722.251	37.59666
722.662	37.87908
723.073	37.64952
723.483	37.55826
723.894	36.69525
724.305	36.74519
724.715	36.49138
725.126	36.38788
725.536	35.79316
725.947	36.15441
726.357	35.49067
726.768	35.54477
727.178	35.12606
727.588	35.20854
727.998	34.5836
728.408	34.38476
728.818	34.54158
729.228	34.02412
729.638	33.69534
730.048	33.62661
730.458	33.7776
730.868	33.23642
731.277	32.93742
731.687	32.62273
732.097	33.01308
732.506	32.73344
732.916	32.73957
733.325	31.91371
733.734	32.07933
734.144	31.44413
734.553	31.56245
734.962	31.18728
735.371	31.37106
735.78	30.73892
736.189	31.26852
736.598	30.90276
737.007	30.71838
737.416	30.17593
737.825	30.51364
738.233	29.50449
738.642	30.33346
739.051	29.63058
739.459	29.94584
739.868	29.55966
740.276	29.67181
740.684	29.33321
741.093	29.20924
741.501	28.75481
741.909	28.78375
742.317	28.68104
742.725	28.18878
743.133	28.42932
743.541	28.15531
743.949	28.24168
744.357	28.02378
744.765	27.87964
745.173	27.52402
745.58	28.01868
745.988	27.24962
746.396	27.49526
746.803	27.05322
747.211	27.47764
747.618	26.83757
748.025	26.90711
748.433	26.86822
748.84	26.66764
749.247	26.62089
749.654	26.32538
750.061	26.49068
750.468	26.3224
750.875	26.65352
751.282	26.14852
751.689	26.16493
752.096	25.885
752.502	26.35842
752.909	25.94761
753.316	25.79024
753.722	25.93968
754.129	25.42754
754.535	25.8486
754.941	25.32135
755.348	25.86982
755.754	25.11566
756.16	25.89628
756.566	25.36941
756.972	25.76526
757.378	25.27223
757.784	25.18733
758.19	25.41372
758.596	24.90448
759.002	25.22187
759.408	24.79139
759.813	25.45157
760.219	24.70563
760.624	25.03653
761.03	24.74443
761.435	24.71028
761.841	24.41406
762.246	24.33677
762.651	24.54903
763.057	23.84862
763.462	24.65499
763.867	24.16574
764.272	24.96574
764.677	24.69023
765.082	24.97704
765.487	25.05558
765.892	24.30551
766.296	24.5191
766.701	23.88752
767.106	24.68795
767.51	23.97606
767.915	24.51873
768.319	24.26384
768.724	23.98666
769.128	24.01672
769.532	23.93091
769.936	24.01367
770.341	23.50682
770.745	23.86633
771.149	23.16061
771.553	23.56659
771.957	23.69691
772.361	23.13655
772.764	23.6626
773.168	22.88039
773.572	23.62706
773.976	23.27579
774.379	23.54825
774.783	23.579
775.186	23.37856
775.59	23.84803
775.993	22.89875
776.396	23.66734
776.8	22.97562
777.203	23.66874
777.606	23.50481
778.009	22.91824
778.412	23.55438
778.815	22.77797
779.218	23.68257
779.621	23.27614
780.023	23.51186
780.426	23.72626
780.829	23.93023
781.231	23.96903
781.634	23.33538
782.036	23.87827
782.439	23.03282
782.841	23.36335
783.244	23.77318
783.646	22.97269
784.048	23.46706
784.45	23.22207
784.852	23.15364
785.254	23.46295
785.656	23.15747
786.058	23.4082
786.46	23.06076
786.862	23.51521
787.264	23.09262
787.665	22.89408
788.067	23.29749
788.468	22.8531
788.87	23.55405
789.271	22.60517
789.673	23.53383
790.074	23.44523
790.475	22.94866
790.877	23.48392
791.278	23.08114
791.679	23.18141
792.08	22.89082
792.481	23.64716
792.882	23.18569
793.283	22.59019
793.683	23.05482
794.084	23.09578
794.485	23.36955
794.886	23.20435
795.286	22.9934
795.687	22.83271
796.087	22.93712
796.487	23.02146
796.888	23.30785
797.288	22.57058
797.688	22.96674
798.088	22.68655
798.489	22.50342
798.889	23.31341
799.289	22.63616
799.689	23.4418
800.088	22.86672
800.488	22.89996
800.888	23.11052
801.288	22.70194
801.687	23.38712
802.087	23.53103
802.486	23.12238
802.886	23.6937
803.285	23.63367
803.685	24.1599
804.084	22.88466
804.483	23.80816
804.882	24.44602
805.281	23.48266
805.68	24.00979
806.079	24.12845
806.478	23.80434
806.877	24.28067
807.276	23.39495
807.675	24.06151
808.074	23.61526
808.472	23.512
808.871	24.54544
809.269	23.83403
809.668	24.27293
810.066	23.98912
810.465	23.35494
810.863	24.25495
811.261	23.84619
811.659	24.37931
812.057	24.21976
812.455	23.72358
812.853	24.30746
813.251	23.98012
813.649	23.759
814.047	24.55015
814.445	23.73542
814.843	23.97508
815.24	23.68566
815.638	23.93325
816.035	23.95328
816.433	23.72264
816.83	24.17312
817.228	24.19287
817.625	23.83772
818.022	24.04509
818.419	23.79889
818.816	23.63219
819.213	24.30057
819.61	23.77708
820.007	24.25748
820.404	24.59755
820.801	24.03621
821.198	24.99118
821.595	24.44459
821.991	24.37498
822.388	25.24774
822.784	24.98595
823.181	25.24503
823.577	25.5578
823.974	25.12526
824.37	25.55044
824.766	25.37518
825.162	24.77519
825.558	25.41366
825.954	24.46693
826.35	24.85204
826.746	25.51504
827.142	25.07409
827.538	25.50887
827.934	25.40281
828.33	25.38008
828.725	25.52314
829.121	25.3872
829.516	25.06707
829.912	25.46573
830.307	24.76998
830.703	24.91573
831.098	24.56329
831.493	24.77815
831.888	25.19464
832.283	24.7877
832.678	24.47413
833.073	25.34083
833.468	24.98873
833.863	25.46865
834.258	25.66567
834.653	25.12069
835.048	25.66268
835.442	25.66192
835.837	25.14691
836.231	25.69879
836.626	25.18731
837.02	25.33966
837.415	26.0917
837.809	25.34798
838.203	25.60825
838.597	25.69678
838.991	24.69937
839.385	24.93195
839.779	25.89798
840.173	24.90011
840.567	25.66826
840.961	26.0082
841.355	25.5441
841.748	25.714
842.142	26.07387
842.536	25.34617
842.929	25.8701
843.323	25.79151
843.716	26.00042
844.109	26.03743
844.503	25.48841
844.896	25.71526
845.289	26.38425
845.682	25.92081
846.075	26.2627
846.468	26.74192
846.861	25.88435
847.254	25.6507
847.647	26.25035
848.04	25.37574
848.432	26.44916
848.825	25.57044
849.217	25.56422
849.61	26.42004
850.002	25.71093
850.395	26.16523
850.787	26.70908
851.179	25.62168
851.572	25.72718
851.964	25.78665
852.356	26.46468
852.748	24.99608
853.14	26.44787
853.532	25.5447
853.924	26.40376
854.315	25.49478
854.707	26.02238
855.099	26.14481
855.491	26.7476
855.882	25.55016
856.274	26.58315
856.665	26.00112
857.056	25.63945
857.448	25.71631
857.839	26.22164
858.23	25.53492
858.621	25.55342
859.012	26.2722
859.403	25.20878
859.794	26.14933
860.185	26.76996
860.576	25.43732
860.967	25.73573
861.358	26.72347
861.748	24.82629
862.139	25.76947
862.529	26.25425
862.92	25.49649
863.31	25.86159
863.701	25.98836
864.091	25.29089
864.481	25.98175
864.872	26.08943
865.262	25.86116
865.652	26.36072
866.042	26.04811
866.432	24.79214
866.822	26.08093
867.211	25.28457
867.601	25.73526
867.991	26.08643
868.381	25.26627
868.77	25.37926
869.16	25.50314
869.549	25.47959
869.939	24.92272
870.328	25.47373
870.717	25.13638
871.106	25.08446
871.496	25.08876
871.885	25.4806
872.274	24.56344
872.663	25.4423
873.052	25.67592
873.441	24.68985
873.829	25.58965
874.218	25.61231
874.607	24.85233
874.996	25.20754
875.384	25.48513
875.773	25.15626
876.161	25.24631
876.549	25.38309
876.938	25.33778
877.326	25.69272
877.714	25.36282
878.102	24.95145
878.491	24.53468
878.879	25.3585
879.267	24.95968
879.655	24.90266
880.042	25.72968
880.43	25.42747
880.818	25.23438
881.206	25.83545
881.593	25.65417
881.981	25.25343
882.368	25.99274
882.756	26.10139
883.143	25.32883
883.53	25.60953
883.918	25.66352
884.305	25.15534
884.692	25.37271
885.079	25.44073
885.466	24.80949
885.853	24.76715
886.24	25.87612
886.627	25.20638
887.014	24.70092
887.4	24.94569
887.787	25.54626
888.174	24.85872
888.56	24.94895
888.947	25.52739
889.333	24.9894
889.719	25.33676
890.106	25.14239
890.492	24.89497
890.878	25.07942
891.264	25.5702
891.65	24.92387
892.036	24.49424
892.422	24.74053
892.808	24.68587
893.194	24.38365
893.58	24.58584
893.965	24.87112
894.351	24.37656
894.736	24.78864
895.122	24.54058
895.507	24.28412
895.893	24.43404
896.278	24.60185
896.663	24.45696
897.049	24.3327
897.434	24.85873
897.819	24.88887
898.204	24.9475
898.589	25.22483
898.974	25.05252
899.359	24.66314
899.743	24.95569
900.128	25.08858
900.513	24.99084
900.897	25.06797
901.282	24.35466
901.667	24.06709
902.051	24.02548
902.435	24.77017
902.82	23.912
903.204	24.24532
903.588	24.87482
903.972	25.03095
904.356	24.69901
904.74	24.23517
905.124	24.95221
905.508	25.12641
905.892	25.02616
906.276	24.61794
906.659	25.05469
907.043	24.33099
907.427	24.63803
907.81	24.56888
908.194	24.64849
908.577	24.68609
908.96	25.15696
909.344	24.35144
909.727	23.65942
910.11	25.19436
910.493	24.86991
910.876	23.60028
911.259	24.28742
911.642	23.95033
912.025	23.79433
912.408	23.3931
912.79	24.40412
913.173	23.78645
913.556	23.81429
913.938	24.18987
914.321	23.7373
914.703	22.89351
915.086	23.35603
915.468	23.85269
915.85	23.73014
916.232	23.47826
916.614	23.84219
916.996	24.38796
917.378	23.98857
917.76	24.28582
918.142	24.3488
918.524	24.61103
918.906	24.06083
919.288	24.69415
919.669	24.77715
920.051	23.9082
920.432	24.58025
920.814	24.43813
921.195	24.09391
921.577	24.21731
921.958	25.22604
922.339	25.35207
922.72	24.62757
923.101	24.2245
923.482	25.64193
923.863	25.50526
924.244	24.59763
924.625	24.68953
925.006	25.02585
925.387	24.97046
925.767	23.99999
926.148	25.58305
926.528	24.70412
926.909	23.94281
927.289	24.81571
927.67	24.82292
928.05	24.00877
928.43	24.22937
928.81	24.26676
929.191	24.58528
929.571	24.43151
929.951	24.0021
930.331	23.83103
930.71	23.72304
931.09	22.89186
931.47	25.2695
931.85	23.34734
932.229	23.74654
932.609	24.39641
932.988	24.50191
933.368	23.97641
933.747	23.52762
934.127	24.74323
934.506	23.56211
934.885	22.62219
935.264	23.86784
935.643	24.19308
936.022	24.33993
936.401	24.06192
936.78	24.14384
937.159	24.61659
937.538	23.76882
937.916	24.30977
938.295	24.46428
938.674	22.46458
939.052	23.6912
939.431	24.85354
939.809	23.87093
940.187	23.68931
940.566	22.46943
940.944	23.67089
941.322	23.46913
941.7	22.20368
942.078	24.94876
942.456	24.48665
942.834	25.09585
943.212	23.39545
943.59	24.61164
943.968	23.94931
944.345	25.11756
944.723	22.27217
945.1	24.1903
945.478	23.41275
945.855	23.5232
946.233	24.67624
946.61	23.44021
946.987	24.43201
947.365	23.52746
947.742	24.44563
948.119	21.03186
948.496	23.10507
948.873	24.25862
949.25	23.20843
949.626	24.34359
950.003	23.09492
950.38	22.90535
950.756	23.66886
951.133	22.97493
951.51	23.87222
951.886	22.99526
952.262	21.99279
952.639	23.78686
953.015	22.17609
953.391	23.46203
953.767	24.30065
954.143	24.5213
954.519	23.25854
954.895	22.90153
955.271	23.78489
955.647	21.84095
956.023	22.43181
956.399	22.56211
956.774	24.34754
957.15	24.40298
957.525	22.00376
957.901	22.8498
958.276	22.00656
958.652	22.61241
959.027	22.34165
959.402	21.59041
959.777	21.79168
960.152	23.46994
960.527	21.9985
960.902	22.23071
961.277	23.00938
961.652	21.99869
962.027	24.34728
962.402	20.56939
962.776	21.49629
963.151	21.17958
963.525	22.09778
963.9	23.14491
964.274	20.6599
964.649	21.83986
965.023	22.84759
965.397	23.89642
965.771	21.54894
966.146	19.54641
966.52	21.3505
966.894	21.6035
967.268	21.43632
967.641	20.98925
968.015	21.45608
968.389	20.8212
968.763	19.5067
969.136	21.69582
969.51	22.98506
969.883	22.22066
970.257	22.65577
970.63	23.68047
971.003	21.79423
971.377	22.62373
971.75	21.50298
972.123	22.59372
972.496	22.04467
972.869	21.14364
973.242	22.00197
973.615	21.04324
973.988	22.84285
974.36	22.20214
974.733	22.89387
975.106	22.05811
975.478	22.66931
975.851	21.23179
976.223	20.66448
976.596	20.71169
976.968	21.37615
977.34	21.25581
977.712	21.83658
978.085	20.25987
978.457	20.93154
978.829	21.62324
979.201	20.59079
979.573	20.07086
979.944	20.51177
980.316	19.94863
980.688	21.83354
981.059	20.38071
981.431	21.90802
981.803	21.33471
982.174	20.97227
982.545	21.96571
982.917	20.79174
983.288	21.07462
983.659	21.19166
984.03	21.73478
984.401	19.8737
984.772	22.4601
985.143	22.17961
985.514	20.70689
985.885	22.22802
986.256	22.0518
986.627	21.36208
986.997	20.36539
987.368	22.33445
987.738	21.74727
988.109	21.09732
988.479	21.44511
988.85	20.17013
989.22	21.66091
989.59	20.31532
989.96	19.68639
990.33	20.35076
990.7	19.97648
991.07	20.82828
991.44	19.92497
991.81	19.91227
992.18	20.29327
992.549	20.27918
992.919	20.75444
993.289	19.98002
993.658	20.51082
994.028	21.74029
994.397	20.88143
994.766	19.34889
995.136	19.92429
995.505	20.69808
995.874	20.86755
996.243	20.75339
996.612	21.05396
996.981	22.882
997.35	20.02608
997.719	22.34268
998.088	19.61799
998.456	20.11951
998.825	19.63948
999.194	21.55093
999.562	21.85305
999.931	19.94805
1000.299	21.63292
1000.667	19.53075
1001.036	19.26944
1001.404	23.03423
1001.772	23.5983
1002.14	21.6498
1002.508	17.70693
1002.876	24.53375
1003.244	23.31974
1003.612	18.34357
1003.98	18.85776
1004.347	20.47456
1004.715	20.36347
1005.083	20.72393
1005.45	20.9334
1005.818	21.30763
1006.185	22.47826
1006.552	22.7584
1006.92	20.04869
1007.287	20.26958
1007.654	22.6765
1008.021	18.50884
1008.388	22.75642
1008.755	23.91204
1009.122	20.7217
1009.489	19.28502
1009.856	15.80984
1010.222	21.02493
1010.589	23.20873
1010.956	18.38336
1011.322	23.05353
1011.689	17.03451
1012.055	21.71178
1012.421	18.50923
1012.788	17.64674
1013.154	19.17101
1013.52	19.38529
1013.886	20.49244
1014.252	19.75961
1014.618	19.53845
1014.984	23.40001
1015.35	25.06334
1015.716	19.71028
1016.081	20.63931
1016.447	24.43079
1016.813	18.86723
1017.178	22.56213
1017.544	21.71422
1017.909	18.34515
1018.274	21.18863
1018.64	18.88628
1019.005	22.87406
1019.37	16.58395
1019.735	22.0995
1020.1	18.58871
1020.465	21.59402
1020.83	20.40944
1021.195	23.39057
1021.56	23.41672
1021.924	25.73652
1022.289	21.81423
1022.654	17.87553
1023.018	19.45325
1023.383	22.06562
1023.747	19.58884
1024.111	17.62955
1024.476	15.8699
1024.84	18.40419
1025.204	19.38101
1025.568	24.7912
1025.932	20.843
1026.296	20.02604
1026.66	21.52115
1027.024	16.51728
1027.387	18.12835
1027.751	22.13363
1028.115	21.47606
1028.478	20.7035
1028.842	25.2341
1029.205	21.62274
1029.569	16.00671
1029.932	24.21848
1030.295	21.31585
1030.659	15.55504
1031.022	21.74665
1031.385	26.33913
1031.748	26.60468
1032.111	20.63378
1032.474	18.50645
1032.836	22.84867
1033.199	32.91997
1033.562	16.92972
1033.924	13.99168
1034.287	20.74266
1034.65	19.21802
1035.012	23.51672
1035.374	19.98941
1035.737	24.45289
1036.099	23.90683
1036.461	19.30476
1036.823	17.23321
1037.185	29.89065
1037.547	20.91244
1037.909	12.9718
1038.271	31.96194
1038.633	16.72121
1038.995	21.95359
1039.356	21.6117
1039.718	26.67774
1040.08	24.65564
1040.441	23.88025
1040.803	30.17763
1041.164	18.67311
1041.525	17.17394
1041.886	11.61336
1042.248	14.65923
1042.609	17.57078
1042.97	27.13189
1043.331	25.81998
1043.692	28.72504
1044.053	20.60664
1044.413	27.1554
1044.774	33.32157
1045.135	21.45959
1045.495	31.23981
1045.856	19.60147
1046.216	20.19569
1046.577	19.15231
1046.937	17.06741
1047.298	24.30397
