Data from 1015water_Reflection__26__16-53-44-412.txt Node

Date: Wed Oct 15 16:53:44 AST 2025
User: lin
Spectrometer: SR600411
Trigger mode: 0
Integration Time (sec): 5.819800E-2
Scans to average: 5
Nonlinearity correction enabled: true
Boxcar width: 0
Storing dark spectrum: false
XAxis mode: Wavelengths
Number of Pixels in Spectrum: 2048
>>>>>Begin Spectral Data<<<<<
187.982	63.35739
188.456	57.55144
188.93	71.13594
189.403	62.22609
189.877	50.1524
190.351	69.71558
190.825	65.57891
191.298	58.93369
191.772	64.00581
192.246	61.28011
192.719	59.70556
193.193	64.5228
193.666	77.37512
194.139	67.27449
194.613	58.42672
195.086	69.74728
195.559	63.97274
196.033	56.38416
196.506	63.06865
196.979	63.28181
197.452	62.25149
197.925	63.47828
198.398	68.23283
198.871	65.04096
199.344	58.4221
199.816	56.91567
200.289	62.52645
200.762	72.11488
201.235	64.76615
201.707	65.46086
202.18	69.03871
202.652	59.12464
203.125	61.92358
203.597	67.0737
204.07	69.22528
204.542	70.42241
205.014	73.99427
205.486	72.09768
205.959	69.53008
206.431	67.50412
206.903	50.63328
207.375	61.61984
207.847	51.40365
208.319	81.98285
208.791	61.84161
209.263	67.08515
209.734	64.40141
210.206	84.16349
210.678	73.99618
211.15	59.3363
211.621	72.99609
212.093	55.63909
212.564	33.61555
213.036	55.32028
213.507	74.99613
213.979	79.84647
214.45	63.55996
214.921	69.77835
215.392	45.8286
215.864	85.4672
216.335	58.1765
216.806	94.66592
217.277	73.01094
217.748	87.90061
218.219	54.35508
218.69	45.44697
219.161	53.25633
219.631	66.91145
220.102	94.56428
220.573	63.50671
221.043	92.12416
221.514	95.50486
221.985	118.57449
222.455	67.40797
222.926	58.81944
223.396	63.88394
223.866	86.06267
224.337	52.82494
224.807	75.40534
225.277	64.44035
225.747	46.80386
226.217	66.66163
226.687	84.49277
227.157	48.77439
227.627	40.43468
228.097	60.26703
228.567	67.25169
229.037	79.46066
229.507	53.26573
229.977	55.93706
230.446	74.80426
230.916	66.6619
231.386	82.47144
231.855	66.66177
232.325	132.81804
232.794	82.1396
233.263	34.99458
233.733	85.07294
234.202	63.26078
234.671	59.99475
235.14	87.34004
235.61	60.31147
236.079	78.94423
236.548	45.51579
237.017	75.4678
237.486	104.00083
237.955	65.90713
238.424	73.96702
238.892	61.72459
239.361	68.80269
239.83	50.5704
240.299	100
240.767	98.64845
241.236	57.47415
241.704	67.08515
242.173	46.15
242.641	70.79182
243.109	90.66541
243.578	61.69551
244.046	74.44105
244.514	65.61927
244.982	76.84803
245.451	73.07286
245.919	74.28173
246.387	66.38803
246.855	74.52431
247.323	64.44035
247.791	111.11398
248.258	90.24247
248.726	38.51886
249.194	50.62899
249.662	82.14041
250.129	75.4505
250.597	85.96355
251.064	59.73658
251.532	94.7359
251.999	98.07653
252.467	131.71411
252.934	71.20675
253.401	111.76648
253.869	49.61746
254.336	77.26889
254.803	58.24746
255.27	68.74522
255.737	56.24687
256.204	56.87542
256.671	67.77388
257.138	68.74727
257.605	80.76602
258.072	37.03204
258.539	88.23354
259.005	68.7459
259.472	85.97875
259.939	54.28054
260.405	81.94233
260.872	79.20462
261.338	96.07805
261.805	60.18005
262.271	71.42375
262.737	46.50738
263.203	55.92932
263.67	68.25126
264.136	70.64839
264.602	70.3341
265.068	112.90502
265.534	71.996
266	79.30656
266.466	52.21776
266.932	49.34683
267.398	72.64496
267.864	79.79481
268.329	42.85238
268.795	73.73357
269.261	77.44744
269.726	76.69537
270.192	68.91577
270.657	83.51399
271.123	66.66256
271.588	83.71744
272.053	95.83276
272.519	60.16387
272.984	65.82798
273.449	56.02881
273.914	56.03951
274.379	55.65518
274.844	51.84649
275.309	58.114
275.774	71.42488
276.239	34.87984
276.704	71.42375
277.169	105.49555
277.634	76.72002
278.098	69.40818
278.563	83.55965
279.028	0
279.492	69.59475
279.957	37.49665
280.421	66.38804
280.886	58.43784
281.35	44.11265
281.814	97.53048
282.279	88.60601
282.743	67.46626
283.207	141.43671
283.671	108.00129
284.135	46.3582
284.599	97.80181
285.063	89.08985
285.527	88.45943
285.991	94.06649
286.455	89.41017
286.919	63.35274
287.382	48.90848
287.846	74.32152
288.31	54.16076
288.773	103.17501
289.237	43.15326
289.7	85.45319
290.164	74.99538
290.627	89.28412
291.09	86.24812
291.554	95.99924
292.017	100
292.48	72.72294
292.943	55.84038
293.406	27.18042
293.869	103.84657
294.332	64.5119
294.795	70.86094
295.258	135.90499
295.721	48.54388
296.184	88.65786
296.646	52.58046
297.109	62.74036
297.572	82.95207
298.034	124.36367
298.497	76.56022
298.959	81.90167
299.422	51.99628
299.884	43.83205
300.346	8.92767
300.809	101.21971
301.271	70.72834
301.733	84.25641
302.195	55.80974
302.657	76.46694
303.119	95.40154
303.581	77.27043
304.043	88.98075
304.505	71.18404
304.967	123.08059
305.429	37.07453
305.891	94.04668
306.352	52.13095
306.814	116.44113
307.275	98.87621
307.737	73.40061
308.198	78.09754
308.66	76.46695
309.121	93.81332
309.583	161.54873
310.044	96.03079
310.505	81.71767
310.966	88.6346
311.428	84.80811
311.889	74.25359
312.35	96.55134
312.811	92.95682
313.272	78.84271
313.733	37.99532
314.193	-711.31488
314.654	109.72375
315.115	91.35675
315.576	52.47025
316.036	66.12628
316.497	212.51519
316.957	96.29591
317.418	29.08866
317.878	72.21935
318.339	70.36701
318.799	29.16371
319.259	53.46036
319.72	95.99924
320.18	68.53551
320.64	63.45675
321.1	70.23461
321.56	93.05463
322.02	58.53263
322.48	98.88869
322.94	100
323.4	93.24232
323.86	80.59493
324.319	35.99543
324.779	71.04953
325.239	89.03968
325.698	78.78459
326.158	84.06779
326.617	50.51066
327.077	72.41034
327.536	61.62387
327.996	117.77965
328.455	95.87553
328.914	113.70089
329.373	43.42951
329.832	56.09355
330.292	130.77339
330.751	79.99746
331.21	58.9952
331.668	61.17246
332.127	70.11132
332.586	78.64872
333.045	93.74888
333.504	55.73173
333.962	59.6464
334.421	93.74888
334.88	123.07912
335.338	88.34741
335.797	92.95682
336.255	46.96643
336.714	92.30623
337.172	74.69568
337.63	55.31453
338.088	93.74907
338.547	62.31562
339.005	107.40869
339.463	77.97794
339.921	46.38697
340.379	79.16352
340.837	64.44035
341.295	59.78919
341.753	89.65411
342.21	75.24379
342.668	59.3704
343.126	77.1707
343.584	82.14041
344.041	83.63338
344.499	159.73585
344.956	93.74944
345.414	75.8568
345.871	80.69999
346.328	58.0303
346.786	43.55943
347.243	85.91379
347.7	42.30392
348.157	80.44698
348.614	80.67909
349.071	59.75218
349.528	70.75036
349.985	81.81526
350.442	78.75731
350.899	77.90404
351.356	72.02918
351.812	41.85631
352.269	86.84038
352.726	90.76815
353.182	59.20688
353.639	126.9266
354.095	56.40454
354.552	67.85229
355.008	56.89091
355.465	34.57464
355.921	60.48998
356.377	87.9607
356.833	40.94734
357.289	101.86956
357.745	84.90296
358.201	79.99619
358.657	93.18071
359.113	82.34951
359.569	60.86195
360.025	65.48166
360.481	62.85228
360.937	66.07426
361.392	49.7024
361.848	64.52708
362.303	64.36772
362.759	55.4955
363.214	45.61144
363.67	68.71139
364.125	66.39494
364.581	54.4982
365.036	58.35137
365.491	73.17768
365.946	69.01912
366.401	62.51992
366.856	63.59485
367.311	50.99574
367.766	57.48484
368.221	64.60077
368.676	67.72183
369.131	55.92174
369.586	64.46778
370.041	57.60481
370.495	56.76616
370.95	58.88546
371.404	59.28468
371.859	57.74291
372.313	55.34483
372.768	56.42978
373.222	55.32961
373.676	53.36855
374.131	58.71233
374.585	52.61659
375.039	57.40442
375.493	58.67171
375.947	55.982
376.401	56.25091
376.855	56.95902
377.309	58.16403
377.763	55.13739
378.217	57.17211
378.67	55.79963
379.124	57.10841
379.578	55.47998
380.031	55.24661
380.485	55.21426
380.938	56.49228
381.392	56.40706
381.845	55.7947
382.299	56.50893
382.752	56.96535
383.205	56.12235
383.658	56.2139
384.111	55.54844
384.564	54.43767
385.018	56.82541
385.471	56.68198
385.923	58.37901
386.376	54.0279
386.829	55.46727
387.282	55.05378
387.735	58.05362
388.187	55.47835
388.64	57.40102
389.093	55.7346
389.545	56.68458
389.998	55.25291
390.45	56.44239
390.902	55.9401
391.355	57.046
391.807	57.50607
392.259	56.23292
392.711	56.41794
393.163	55.84837
393.615	56.70995
394.068	56.401
394.519	55.93994
394.971	56.27342
395.423	56.05353
395.875	56.08677
396.327	56.48729
396.779	56.18506
397.23	56.25683
397.682	55.91628
398.133	55.27189
398.585	56.05748
399.036	56.41687
399.488	54.63236
399.939	55.54382
400.39	56.19398
400.842	55.03761
401.293	55.89141
401.744	55.95876
402.195	55.89608
402.646	55.02583
403.097	54.67078
403.548	55.08475
403.999	54.97768
404.45	54.56665
404.9	54.73341
405.351	54.64805
405.802	53.75732
406.253	53.89208
406.703	54.06333
407.154	54.18477
407.604	53.77603
408.055	53.85759
408.505	54.01519
408.955	53.20267
409.406	53.26556
409.856	52.92186
410.306	52.5484
410.756	52.98976
411.206	52.76443
411.656	52.47168
412.106	52.29151
412.556	52.00871
413.006	51.85472
413.456	51.47568
413.905	51.43364
414.355	50.74177
414.805	51.13463
415.254	51.05699
415.704	50.47442
416.153	50.59983
416.603	50.31411
417.052	50.09824
417.502	50.46397
417.951	49.35295
418.4	49.98804
418.849	50.03316
419.298	49.62975
419.748	49.58942
420.197	49.23702
420.646	49.09815
421.094	48.81795
421.543	49.35811
421.992	49.07948
422.441	49.14279
422.89	48.87066
423.338	48.52935
423.787	48.621
424.236	48.07354
424.684	48.45756
425.133	47.8698
425.581	47.96139
426.029	47.98278
426.478	47.67649
426.926	47.32458
427.374	47.65188
427.822	47.63402
428.27	47.43891
428.718	46.84167
429.166	46.93484
429.614	47.35309
430.062	47.59264
430.51	46.82843
430.958	46.90779
431.406	46.8042
431.853	46.78309
432.301	46.394
432.749	46.38622
433.196	46.70261
433.644	46.24931
434.091	46.18843
434.538	45.79489
434.986	46.11299
435.433	46.16793
435.88	45.94612
436.327	46.39167
436.775	46.21853
437.222	45.96937
437.669	45.43307
438.116	46.07799
438.563	45.70255
439.009	45.47068
439.456	46.17875
439.903	45.76261
440.35	45.0942
440.796	45.48325
441.243	45.48208
441.689	45.49414
442.136	45.60402
442.582	45.16574
443.029	45.47771
443.475	45.07288
443.921	45.26396
444.368	45.14328
444.814	45.59075
445.26	45.82034
445.706	45.73929
446.152	45.6193
446.598	45.75235
447.044	45.47539
447.49	45.50014
447.936	45.50051
448.381	45.51116
448.827	45.78833
449.273	45.6167
449.718	45.61636
450.164	45.5248
450.61	45.2454
451.055	45.64028
451.5	46.21382
451.946	45.93447
452.391	45.38396
452.836	46.09862
453.282	45.59268
453.727	45.59665
454.172	46.3119
454.617	46.05267
455.062	45.68094
455.507	46.16273
455.952	46.07002
456.396	46.0672
456.841	46.31363
457.286	46.37389
457.731	46.65814
458.175	46.47192
458.62	46.25915
459.064	46.75544
459.509	46.61476
459.953	46.42354
460.398	46.71658
460.842	46.90284
461.286	47.2856
461.73	47.60775
462.174	47.17373
462.619	47.42197
463.063	47.518
463.507	47.51922
463.951	47.69874
464.394	47.44951
464.838	47.87969
465.282	48.25745
465.726	48.21999
466.17	48.26309
466.613	48.11624
467.057	48.29378
467.5	48.23772
467.944	48.44317
468.387	48.94365
468.831	48.86327
469.274	48.95691
469.717	49.35383
470.16	49.6344
470.603	50.04092
471.047	50.52823
471.49	50.69596
471.933	50.50284
472.376	50.66808
472.818	51.13507
473.261	51.25006
473.704	51.27042
474.147	51.37312
474.59	51.73288
475.032	51.54696
475.475	52.14632
475.917	51.69588
476.36	52.23131
476.802	52.71199
477.245	52.64529
477.687	52.64104
478.129	53.24402
478.571	53.55779
479.013	53.51568
479.456	53.84179
479.898	53.86227
480.34	54.34973
480.782	54.09851
481.224	54.14898
481.665	54.49829
482.107	54.35098
482.549	54.32711
482.991	54.43568
483.432	54.18243
483.874	54.49194
484.315	54.86124
484.757	54.88365
485.198	55.04721
485.64	55.19722
486.081	55.70091
486.522	55.80856
486.963	55.36882
487.405	55.72145
487.846	56.31262
488.287	55.92725
488.728	55.75961
489.169	56.35636
489.61	56.40904
490.05	56.25843
490.491	56.2409
490.932	56.05578
491.373	56.38164
491.813	56.27814
492.254	56.36863
492.694	56.52204
493.135	56.39689
493.575	56.88194
494.016	56.943
494.456	56.65397
494.896	57.16868
495.336	57.62387
495.777	57.29021
496.217	57.45176
496.657	57.35707
497.097	58.31691
497.537	58.12201
497.977	57.88418
498.416	57.96771
498.856	57.87532
499.296	57.30949
499.736	57.61621
500.175	57.90682
500.615	58.3773
501.054	58.19355
501.494	58.86688
501.933	58.96313
502.373	58.90515
502.812	58.95992
503.251	59.23851
503.69	58.84339
504.129	59.72085
504.569	59.80044
505.008	59.97234
505.447	59.98414
505.886	60.30971
506.324	60.44286
506.763	60.79498
507.202	61.18023
507.641	61.23132
508.079	61.27505
508.518	61.44128
508.957	61.89412
509.395	61.72122
509.834	62.44035
510.272	62.67055
510.71	62.752
511.149	63.2153
511.587	63.6959
512.025	63.39542
512.463	63.86872
512.901	63.79891
513.339	64.29998
513.777	64.25082
514.215	63.83623
514.653	64.59836
515.091	64.47968
515.529	65.26052
515.966	65.05469
516.404	65.84629
516.842	65.74671
517.279	66.17894
517.717	66.2343
518.154	66.05626
518.592	65.89969
519.029	66.82164
519.466	66.73793
519.904	67.03548
520.341	66.87347
520.778	67.82648
521.215	68.09809
521.652	69.00987
522.089	68.86947
522.526	68.69489
522.963	68.64319
523.399	69.42435
523.836	69.64424
524.273	69.91752
524.71	70.58901
525.146	70.36823
525.583	70.7269
526.019	70.4927
526.456	70.52489
526.892	70.78004
527.328	70.85104
527.765	71.71746
528.201	71.3589
528.637	72.2632
529.073	71.52064
529.509	72.30395
529.945	72.50409
530.381	73.02565
530.817	72.52332
531.253	72.65062
531.689	72.97165
532.124	73.24708
532.56	73.77683
532.996	73.50483
533.431	72.65094
533.867	73.53946
534.302	73.73276
534.738	73.72722
535.173	74.64593
535.608	74.54839
536.044	74.62686
536.479	74.60417
536.914	74.31219
537.349	74.56872
537.784	74.62756
538.219	74.97653
538.654	74.71733
539.089	75.13823
539.524	74.60176
539.959	74.83576
540.393	74.63507
540.828	75.47302
541.263	75.97909
541.697	75.96895
542.132	75.98958
542.566	76.08667
543.001	76.07799
543.435	76.03178
543.869	75.46017
544.303	76.08492
544.738	75.98964
545.172	76.00031
545.606	76.13677
546.04	75.77041
546.474	76.24654
546.908	75.82311
547.342	75.93563
547.775	75.70547
548.209	76.24421
548.643	75.63976
549.077	76.3106
549.51	76.03181
549.944	76.10554
550.377	75.98668
550.811	75.66323
551.244	75.33277
551.677	75.02809
552.111	75.33102
552.544	75.2065
552.977	74.76747
553.41	74.61628
553.843	74.54417
554.276	74.54932
554.709	74.29234
555.142	73.90126
555.575	74.0238
556.008	73.7092
556.44	72.8355
556.873	73.05016
557.306	72.55452
557.738	72.57603
558.171	73.05249
558.603	72.77012
559.036	72.10653
559.468	71.97739
559.9	72.32705
560.333	71.36931
560.765	71.47275
561.197	71.01157
561.629	70.60261
562.061	70.41761
562.493	70.05229
562.925	69.7692
563.357	70.18206
563.789	69.61309
564.22	69.44362
564.652	69.36133
565.084	69.29416
565.515	68.76015
565.947	68.16826
566.378	68.05916
566.81	67.88661
567.241	67.52055
567.672	68.03179
568.104	67.81604
568.535	66.93752
568.966	66.69221
569.397	66.85141
569.828	66.58305
570.259	66.31407
570.69	65.34562
571.121	65.19473
571.552	65.44807
571.983	64.68606
572.414	64.78987
572.844	64.95205
573.275	64.60922
573.705	64.51959
574.136	63.93032
574.566	64.02104
574.997	63.71924
575.427	63.7261
575.857	63.47953
576.288	63.15952
576.718	63.10108
577.148	62.34155
577.578	62.24462
578.008	62.2259
578.438	61.98052
578.868	61.56684
579.298	61.32319
579.728	60.8097
580.157	60.48743
580.587	60.0119
581.017	59.43328
581.446	59.76549
581.876	59.53916
582.305	59.0439
582.735	58.91302
583.164	58.39549
583.593	58.18474
584.023	58.2825
584.452	57.73979
584.881	57.42629
585.31	57.26175
585.739	57.7658
586.168	57.34709
586.597	57.23991
587.026	57.24034
587.455	57.24033
587.884	56.88028
588.312	57.07404
588.741	56.57287
589.17	56.24964
589.598	56.51285
590.027	56.10798
590.455	55.52603
590.884	55.41925
591.312	55.44114
591.74	55.24969
592.168	54.81649
592.597	54.50498
593.025	54.57976
593.453	54.27923
593.881	54.00902
594.309	53.7806
594.737	53.12934
595.165	53.82711
595.592	53.32008
596.02	53.13033
596.448	52.76532
596.875	52.27459
597.303	52.5194
597.73	52.08681
598.158	52.0688
598.585	51.43586
599.013	51.48358
599.44	51.37895
599.867	51.27333
600.294	51.03044
600.722	51.08901
601.149	51.39653
601.576	51.25182
602.003	51.163
602.43	51.20251
602.856	50.86777
603.283	51.21348
603.71	50.86602
604.137	50.45939
604.563	50.35599
604.99	49.94782
605.416	49.7794
605.843	49.38701
606.269	49.0563
606.696	49.26491
607.122	49.03203
607.548	49.24897
607.975	49.30202
608.401	49.20043
608.827	49.24453
609.253	48.98558
609.679	48.81965
610.105	48.0108
610.531	48.28223
610.956	48.2046
611.382	48.41973
611.808	48.24541
612.234	48.15559
612.659	48.17349
613.085	48.32977
613.51	48.40558
613.936	48.05605
614.361	47.86363
614.786	47.90335
615.212	47.66098
615.637	47.63686
616.062	47.62616
616.487	47.30221
616.912	47.75203
617.337	47.37859
617.762	47.40144
618.187	46.96636
618.612	47.14527
619.037	46.83622
619.461	46.96039
619.886	46.86874
620.311	46.77369
620.735	46.74076
621.16	46.87901
621.584	46.73253
622.008	46.96504
622.433	46.37896
622.857	46.64369
623.281	46.77408
623.705	46.6963
624.13	46.54719
624.554	46.38736
624.978	46.66603
625.402	46.50303
625.826	46.56888
626.249	46.46444
626.673	46.19835
627.097	46.61173
627.521	46.56292
627.944	46.42685
628.368	46.69539
628.791	46.77254
629.215	46.56233
629.638	46.58624
630.061	46.61941
630.485	46.94604
630.908	46.76475
631.331	47.0689
631.754	47.0388
632.177	47.4129
632.6	46.64852
633.023	46.82408
633.446	46.99934
633.869	47.0935
634.292	47.73963
634.715	47.46898
635.137	47.70836
635.56	47.98696
635.982	48.79762
636.405	47.92033
636.827	48.57016
637.25	48.37035
637.672	48.50439
638.094	48.20301
638.517	48.49915
638.939	48.60201
639.361	48.9285
639.783	49.08269
640.205	49.34073
640.627	49.43394
641.049	49.56193
641.471	49.86521
641.893	49.56899
642.314	50.1293
642.736	49.91195
643.158	49.84626
643.579	50.19864
644.001	49.99638
644.422	49.64823
644.844	50.39273
645.265	50.21427
645.686	50.15162
646.107	50.44517
646.529	50.5156
646.95	50.72791
647.371	51.3714
647.792	51.07777
648.213	51.16678
648.634	51.8095
649.055	51.63198
649.475	52.06965
649.896	52.13659
650.317	52.05742
650.737	52.37866
651.158	52.14123
651.578	52.69794
651.999	53.0758
652.419	52.65149
652.84	53.75349
653.26	53.40678
653.68	54.0063
654.1	53.72436
654.521	54.16665
654.941	54.35994
655.361	54.43064
655.781	54.92284
656.2	55.13602
656.62	55.2683
657.04	55.42455
657.46	55.43658
657.879	55.11415
658.299	55.29964
658.719	56.15345
659.138	55.46439
659.558	56.16075
659.977	56.5708
660.396	56.77201
660.816	56.32857
661.235	56.2485
661.654	56.66269
662.073	57.64426
662.492	57.60226
662.911	57.72067
663.33	58.00622
663.749	57.27817
664.168	57.64744
664.587	57.6018
665.006	57.90561
665.424	58.33727
665.843	58.57906
666.261	58.67729
666.68	59.01362
667.098	58.94732
667.517	59.11569
667.935	59.10988
668.353	59.46058
668.772	59.76447
669.19	59.66903
669.608	59.24037
670.026	60.5684
670.444	59.88125
670.862	59.57539
671.28	59.81035
671.698	59.36455
672.115	60.28227
672.533	60.12745
672.951	60.27512
673.368	60.34325
673.786	59.82032
674.203	60.00805
674.621	59.66064
675.038	59.46906
675.456	59.98205
675.873	59.44488
676.29	60.00528
676.707	59.54325
677.124	59.25993
677.541	59.77136
677.958	59.44866
678.375	59.12826
678.792	59.27283
679.209	59.2176
679.626	60.03494
680.043	59.46849
680.459	60.16706
680.876	59.88221
681.292	59.87585
681.709	59.14699
682.125	59.57466
682.542	59.42706
682.958	58.41262
683.374	59.35789
683.79	59.10295
684.207	59.55524
684.623	58.83001
685.039	58.9994
685.455	59.02104
685.871	58.64332
686.286	58.98185
686.702	58.01876
687.118	58.34083
687.534	57.74419
687.949	58.53553
688.365	58.50906
688.781	57.62625
689.196	57.27937
689.611	56.98931
690.027	57.45493
690.442	56.78218
690.857	56.97844
691.273	56.74809
691.688	56.52673
692.103	56.81757
692.518	55.96815
692.933	56.13557
693.348	55.80612
693.763	55.8302
694.177	54.88725
694.592	55.31487
695.007	54.91887
695.421	55.28837
695.836	54.6975
696.25	54.23258
696.665	54.12997
697.079	53.79905
697.494	53.5922
697.908	52.76926
698.322	53.36744
698.736	52.82169
699.151	53.0245
699.565	52.11881
699.979	52.44953
700.393	52.02468
700.806	51.79449
701.22	51.65826
701.634	51.55546
702.048	51.45033
702.461	51.09766
702.875	50.99044
703.289	50.51975
703.702	50.36145
704.116	49.71625
704.529	49.74831
704.942	49.15474
705.356	49.23213
705.769	48.49961
706.182	48.72354
706.595	47.84022
707.008	47.70788
707.421	47.3689
707.834	47.46055
708.247	46.78412
708.66	46.72881
709.072	46.89025
709.485	45.60146
709.898	45.96121
710.31	45.34545
710.723	45.62225
711.135	44.81773
711.548	44.63352
711.96	44.06872
712.373	44.25835
712.785	43.45384
713.197	43.68627
713.609	42.86245
714.021	43.22276
714.433	42.87922
714.845	42.82311
715.257	41.94377
715.669	41.65051
716.081	41.26059
716.493	40.96805
716.904	41.0027
717.316	40.52416
717.727	40.08868
718.139	40.08263
718.55	39.82217
718.962	40.09152
719.373	39.2988
719.784	39.22013
720.196	39.2809
720.607	39.0143
721.018	38.42446
721.429	38.09835
721.84	38.30335
722.251	37.54637
722.662	37.41984
723.073	37.32109
723.483	36.94976
723.894	36.70114
724.305	36.36176
724.715	36.34468
725.126	36.06829
725.536	35.56816
725.947	35.20758
726.357	35.17355
726.768	35.09126
727.178	34.8766
727.588	34.69
727.998	34.50833
728.408	34.46761
728.818	34.21145
729.228	33.68787
729.638	33.97615
730.048	33.21368
730.458	33.41452
730.868	32.9286
731.277	32.94672
731.687	32.79276
732.097	32.75962
732.506	32.11932
732.916	32.6184
733.325	31.82893
733.734	31.65344
734.144	31.1749
734.553	31.29734
734.962	30.92258
735.371	31.20465
735.78	30.83672
736.189	30.95421
736.598	30.56567
737.007	30.77768
737.416	30.02238
737.825	30.12815
738.233	29.58366
738.642	30.03836
739.051	29.62344
739.459	29.82278
739.868	29.41718
740.276	29.49681
740.684	29.19874
741.093	28.75263
741.501	28.71993
741.909	28.43336
742.317	28.54372
742.725	27.99835
743.133	27.92072
743.541	28.10464
743.949	28.02572
744.357	27.57139
744.765	27.64109
745.173	27.3998
745.58	27.72146
745.988	26.83757
746.396	27.37923
746.803	26.98566
747.211	26.96852
747.618	26.73819
748.025	26.67807
748.433	26.85871
748.84	26.25046
749.247	26.59609
749.654	26.06579
750.061	26.47915
750.468	26.19959
750.875	26.36759
751.282	25.96087
751.689	26.4798
752.096	25.66072
752.502	25.98799
752.909	25.77309
753.316	25.55174
753.722	25.94979
754.129	25.4255
754.535	25.89786
754.941	25.33166
755.348	25.65133
755.754	25.31432
756.16	25.75684
756.566	25.186
756.972	25.37033
757.378	25.15415
757.784	24.79694
758.19	25.05688
758.596	24.74613
759.002	25.02249
759.408	24.24993
759.813	25.07881
760.219	24.48064
760.624	24.67983
761.03	24.79633
761.435	24.63862
761.841	24.23159
762.246	24.08639
762.651	24.32299
763.057	23.77024
763.462	24.50823
763.867	23.9632
764.272	24.57108
764.677	24.41104
765.082	24.82658
765.487	24.76944
765.892	24.18957
766.296	24.479
766.701	23.90278
767.106	24.68397
767.51	23.91041
767.915	24.07398
768.319	24.10355
768.724	24.06878
769.128	24.11824
769.532	23.60926
769.936	24.20803
770.341	23.17238
770.745	24.04436
771.149	23.22622
771.553	23.46667
771.957	23.54525
772.361	22.80163
772.764	23.41362
773.168	22.83808
773.572	23.48901
773.976	23.17188
774.379	23.16329
774.783	23.29601
775.186	22.7933
775.59	23.48866
775.993	22.87784
776.396	23.65681
776.8	22.91224
777.203	23.51901
777.606	23.44282
778.009	22.70478
778.412	23.56252
778.815	22.9465
779.218	23.48242
779.621	23.00749
780.023	23.65556
780.426	23.8534
780.829	23.59378
781.231	23.55284
781.634	22.93012
782.036	23.87827
782.439	23.09123
782.841	23.06007
783.244	23.62391
783.646	22.64253
784.048	23.4193
784.45	23.00782
784.852	23.67933
785.254	23.08121
785.656	23.17418
786.058	23.79025
786.46	22.79046
786.862	23.35013
787.264	22.49823
787.665	22.86735
788.067	23.06027
788.468	22.88798
788.87	23.40927
789.271	22.9279
789.673	23.16643
790.074	23.22515
790.475	22.79088
790.877	23.42003
791.278	23.19908
791.679	23.39802
792.08	23.23606
792.481	23.27287
792.882	23.42289
793.283	22.59576
793.683	22.9184
794.084	22.97501
794.485	23.25248
794.886	23.04788
795.286	22.60793
795.687	23.15267
796.087	22.62821
796.487	23.04825
796.888	22.98275
797.288	22.72388
797.688	22.73714
798.088	22.63041
798.489	22.83728
798.889	23.35424
799.289	22.33081
799.689	22.72975
800.088	22.84115
800.488	22.76652
800.888	22.91603
801.288	22.79526
801.687	23.39017
802.087	23.03525
802.486	23.12553
802.886	23.53772
803.285	22.91872
803.685	24.14697
804.084	23.3656
804.483	23.82131
804.882	24.09908
805.281	23.72404
805.68	24.07571
806.079	24.38956
806.478	23.51195
806.877	23.87484
807.276	23.11226
807.675	24.0681
808.074	23.58906
808.472	23.56817
808.871	24.59455
809.269	23.74549
809.668	24.00225
810.066	23.79535
810.465	23.6988
810.863	24.04969
811.261	23.98876
811.659	24.26584
812.057	23.98781
812.455	23.58674
812.853	24.25984
813.251	24.09276
813.649	23.65053
814.047	24.59319
814.445	23.51431
814.843	24.25479
815.24	23.81692
815.638	24.02593
816.035	24.32819
816.433	24.04119
816.83	24.28742
817.228	23.96941
817.625	23.56829
818.022	23.98839
818.419	24.00713
818.816	23.63049
819.213	24.14876
819.61	23.92475
820.007	24.17307
820.404	24.77213
820.801	24.08972
821.198	25.09093
821.595	24.62661
821.991	24.38069
822.388	25.00161
822.784	24.66185
823.181	25.04731
823.577	25.46186
823.974	25.0892
824.37	25.38557
824.766	25.08389
825.162	24.69676
825.558	25.11865
825.954	24.51496
826.35	24.81332
826.746	25.43916
827.142	24.90385
827.538	25.35234
827.934	25.44509
828.33	24.94792
828.725	25.42642
829.121	24.99882
829.516	24.52674
829.912	25.02342
830.307	24.56186
830.703	24.86868
831.098	24.70356
831.493	24.28618
831.888	25.03003
832.283	24.54273
832.678	24.61632
833.073	25.44363
833.468	24.81026
833.863	25.41167
834.258	25.8621
834.653	25.09941
835.048	25.69296
835.442	25.26348
835.837	24.82091
836.231	25.45724
836.626	25.40776
837.02	25.06461
837.415	25.52282
837.809	25.49168
838.203	25.57082
838.597	25.61984
838.991	24.61472
839.385	25.07614
839.779	25.49786
840.173	24.65732
840.567	25.57202
840.961	26.20054
841.355	24.9944
841.748	25.79702
842.142	25.7233
842.536	24.84904
842.929	25.6642
843.323	25.2115
843.716	25.36454
844.109	25.43497
844.503	25.53783
844.896	26.14648
845.289	26.50246
845.682	25.59649
846.075	26.30691
846.468	26.22321
846.861	26.16156
847.254	26.32328
847.647	26.28448
848.04	25.56137
848.432	26.35935
848.825	26.15396
849.217	25.64931
849.61	25.99631
850.002	25.87906
850.395	25.82723
850.787	25.9657
851.179	25.47371
851.572	26.41534
851.964	26.05261
852.356	26.52464
852.748	25.48938
853.14	26.36381
853.532	25.40759
853.924	26.33443
854.315	25.88848
854.707	26.87571
855.099	25.83126
855.491	26.68635
855.882	25.44987
856.274	27.26293
856.665	26.369
857.056	24.91427
857.448	25.79913
857.839	26.31319
858.23	25.57266
858.621	25.7604
859.012	25.91838
859.403	25.61453
859.794	26.17254
860.185	26.88601
860.576	26.18292
860.967	26.02525
861.358	26.16767
861.748	25.72736
862.139	25.56936
862.529	25.54897
862.92	25.48927
863.31	25.57542
863.701	26.41679
864.091	25.72628
864.481	25.53516
864.872	26.21309
865.262	25.95753
865.652	26.50047
866.042	26.05452
866.432	25.14764
866.822	26.2307
867.211	25.63057
867.601	25.28273
867.991	25.80075
868.381	25.9684
868.77	25.37353
869.16	25.12521
869.549	25.54631
869.939	24.78621
870.328	24.87815
870.717	25.68049
871.106	24.73771
871.496	25.11444
871.885	25.04889
872.274	24.71347
872.663	25.521
873.052	25.60475
873.441	24.97006
873.829	24.96678
874.218	25.63418
874.607	24.55249
874.996	25.647
875.384	25.50105
875.773	24.7893
876.161	25.4664
876.549	25.72562
876.938	25.13529
877.326	25.68415
877.714	25.52156
878.102	24.83214
878.491	24.48562
878.879	25.17861
879.267	24.69802
879.655	24.70167
880.042	25.61135
880.43	25.18146
880.818	24.93845
881.206	25.55392
881.593	25.71601
881.981	24.97501
882.368	25.63467
882.756	25.90154
883.143	25.26081
883.53	25.63664
883.918	25.61523
884.305	25.08486
884.692	25.17764
885.079	25.50124
885.466	25.06488
885.853	24.68724
886.24	25.52759
886.627	24.82666
887.014	24.57962
887.4	25.7478
887.787	25.28535
888.174	25.21319
888.56	25.41509
888.947	25.15973
889.333	24.73971
889.719	25.41279
890.106	25.36995
890.492	25.09312
890.878	25.09709
891.264	25.2566
891.65	24.88388
892.036	24.54057
892.422	25.11322
892.808	24.76269
893.194	24.42064
893.58	24.84796
893.965	24.4828
894.351	24.31896
894.736	24.63745
895.122	24.9972
895.507	24.21426
895.893	24.33177
896.278	24.70719
896.663	24.32164
897.049	24.73408
897.434	25.05631
897.819	24.39002
898.204	24.96958
898.589	24.82436
898.974	24.64972
899.359	24.65895
899.743	24.88631
900.128	25.56513
900.513	24.76318
900.897	24.81908
901.282	25.01709
901.667	24.71376
902.051	23.52801
902.435	24.93339
902.82	24.10979
903.204	23.81464
903.588	24.88065
903.972	24.54332
904.356	24.55987
904.74	24.17182
905.124	24.47478
905.508	24.32157
905.892	24.64612
906.276	25.29319
906.659	24.45995
907.043	24.61159
907.427	25.01269
907.81	24.82274
908.194	24.73131
908.577	24.11344
908.96	25.37807
909.344	25.25472
909.727	24.1197
910.11	24.90192
910.493	24.14202
910.876	24.33526
911.259	24.42713
911.642	24.22113
912.025	23.97085
912.408	23.68369
912.79	24.06848
913.173	23.00238
913.556	22.99319
913.938	23.92774
914.321	23.67469
914.703	23.16063
915.086	23.38004
915.468	23.8731
915.85	23.25691
916.232	23.33583
916.614	23.42783
916.996	24.17253
917.378	24.07689
917.76	23.30279
918.142	24.09956
918.524	24.06047
918.906	24.19665
919.288	25.10497
919.669	24.38794
920.051	24.39665
920.432	24.2506
920.814	24.59869
921.195	24.78091
921.577	23.73508
921.958	24.25568
922.339	25.13178
922.72	24.41513
923.101	24.1266
923.482	25.3403
923.863	24.78046
924.244	23.80745
924.625	23.8504
925.006	24.88814
925.387	24.67343
925.767	24.71257
926.148	25.5374
926.528	25.11442
926.909	23.67368
927.289	25.69635
927.67	24.76734
928.05	23.18496
928.43	23.84224
928.81	25.21253
929.191	25.23816
929.571	23.73658
929.951	24.15911
930.331	23.75682
930.71	23.24939
931.09	23.49753
931.47	25.13686
931.85	23.84057
932.229	23.89365
932.609	23.95743
932.988	24.25099
933.368	23.08544
933.747	24.60084
934.127	24.40267
934.506	24.08954
934.885	24.55468
935.264	24.1604
935.643	22.83379
936.022	24.48325
936.401	23.76524
936.78	24.09188
937.159	24.34262
937.538	22.95684
937.916	23.6563
938.295	24.11229
938.674	23.29953
939.052	24.46104
939.431	23.9582
939.809	24.26963
940.187	24.56209
940.566	24.43707
940.944	24.47937
941.322	24.17745
941.7	23.96751
942.078	25.18736
942.456	22.64649
942.834	23.61897
943.212	23.87667
943.59	25.43359
943.968	23.98536
944.345	22.78399
944.723	22.96987
945.1	24.39163
945.478	23.74462
945.855	25.12588
946.233	23.37341
946.61	24.91589
946.987	23.17894
947.365	23.31141
947.742	25.0764
948.119	22.83776
948.496	22.44691
948.873	24.5036
949.25	24.24768
949.626	23.80394
950.003	23.92313
950.38	22.67592
950.756	24.68895
951.133	25.12826
951.51	24.29498
951.886	24.12891
952.262	22.92825
952.639	23.64507
953.015	24.02319
953.391	23.86558
953.767	25.33502
954.143	23.96865
954.519	22.862
954.895	23.14849
955.271	23.78489
955.647	23.40744
956.023	23.36117
956.399	23.02665
956.774	24.08993
957.15	25.25395
957.525	22.45347
957.901	20.75854
958.276	21.43173
958.652	22.58213
959.027	23.63005
959.402	24.20437
959.777	23.6921
960.152	24.00945
960.527	24.09657
960.902	23.14466
961.277	22.81301
961.652	23.66561
962.027	24.81875
962.402	23.20819
962.776	23.85486
963.151	21.17958
963.525	21.69971
963.9	22.84821
964.274	20.91568
964.649	21.80793
965.023	22.99952
965.397	23.00782
965.771	22.36156
966.146	20.86322
966.52	21.23286
966.894	24.65144
967.268	22.89235
967.641	23.15663
968.015	20.16364
968.389	22.80116
968.763	22.17461
969.136	23.53782
969.51	23.44505
969.883	23.59599
970.257	23.27657
970.63	23.72953
971.003	21.55615
971.377	23.33584
971.75	22.47878
972.123	24.51752
972.496	24.32365
972.869	21.32923
973.242	22.62193
973.615	23.47352
973.988	22.35917
974.36	23.20962
974.733	21.88523
975.106	22.52228
975.478	22.75977
975.851	23.04225
976.223	21.09866
976.596	19.24943
976.968	22.64945
977.34	22.42303
977.712	21.37196
978.085	20.16426
978.457	21.06405
978.829	21.94516
979.201	20.99017
979.573	20.04883
979.944	20.66568
980.316	20.74109
980.688	21.97525
981.059	23.76661
981.431	20.90453
981.803	20.72335
982.174	21.32579
982.545	22.11499
982.917	22.8214
983.288	21.73584
983.659	21.03502
984.03	21.7075
984.401	21.86683
984.772	21.68052
985.143	24.13543
985.514	20.4448
985.885	23.08978
986.256	22.24999
986.627	21.11428
986.997	21.81059
987.368	21.34258
987.738	20.235
988.109	20.74589
988.479	19.90446
988.85	19.51186
989.22	22.16833
989.59	21.72835
989.96	20.46211
990.33	21.72904
990.7	20.23732
991.07	21.28304
991.44	20.8571
991.81	19.89954
992.18	20.12336
992.549	20.79697
992.919	19.95027
993.289	19.78884
993.658	21.3311
994.028	22.05552
994.397	20.56533
994.766	20.23189
995.136	20.32976
995.505	22.24123
995.874	20.41092
996.243	19.9816
996.612	19.74971
996.981	22.5853
997.35	23.14598
997.719	20.62219
998.088	23.42566
998.456	19.4712
998.825	22.02499
999.194	24.20955
999.562	22.8924
999.931	24.30809
1000.299	20.82167
1000.667	20.47905
1001.036	18.94895
1001.404	23.30355
1001.772	23.93252
1002.14	24.14097
1002.508	22.34781
1002.876	24.53375
1003.244	24.39965
1003.612	20.36895
1003.98	16.93374
1004.347	20.86604
1004.715	23.15764
1005.083	19.96866
1005.45	21.62242
1005.818	20.55596
1006.185	22.27683
1006.552	23.3739
1006.92	23.02084
1007.287	17.85027
1007.654	23.10598
1008.021	21.70193
1008.388	21.00485
1008.755	24.96102
1009.122	18.99944
1009.489	20.63133
1009.856	20.17834
1010.222	19.70184
1010.589	23.14385
1010.956	23.63055
1011.322	19.54194
1011.689	19.00371
1012.055	23.681
1012.421	17.8208
1012.788	26.07661
1013.154	16.54163
1013.52	23.08353
1013.886	24.71868
1014.252	22.99069
1014.618	21.66326
1014.984	23.40001
1015.35	21.83322
1015.716	20.71449
1016.081	20.82617
1016.447	21.7258
1016.813	25.2578
1017.178	21.67114
1017.544	20.42473
1017.909	21.64196
1018.274	17.49304
1018.64	24.65642
1019.005	21.98107
1019.37	18.14667
1019.735	21.85522
1020.1	24.66588
1020.465	24.10256
1020.83	27.44066
1021.195	23.84343
1021.56	22.80831
1021.924	23.65781
1022.289	20.07498
1022.654	25.53904
1023.018	25.06011
1023.383	28.06936
1023.747	20.40525
1024.111	30.53
1024.476	25.06976
1024.84	24.54061
1025.204	26.53327
1025.568	30.6597
1025.932	20.22985
1026.296	23.12354
1026.66	38.4373
1027.024	24.06397
1027.387	28.30049
1027.751	23.22958
1028.115	27.6136
1028.478	31.90363
1028.842	23.01299
1029.205	18.89317
1029.569	20.58087
1029.932	25.43988
1030.295	23.60834
1030.659	32.29303
1031.022	32.50063
1031.385	22.89226
1031.748	22.35604
1032.111	23.86619
1032.474	22.4552
1032.836	19.84783
1033.199	33.15687
1033.562	35.77574
1033.924	27.70044
1034.287	22.62867
1034.65	36.2791
1035.012	25.4768
1035.374	31.62748
1035.737	18.33894
1036.099	33.12602
1036.461	17.74775
1036.823	32.40126
1037.185	22.49731
1037.547	28.29465
1037.909	19.16369
1038.271	26.14964
1038.633	25.26876
1038.995	35.2445
1039.356	30.05526
1039.718	23.30035
1040.08	27.32154
1040.441	38.89408
1040.803	26.78217
1041.164	24.53212
1041.525	25.41863
1041.886	22.39834
1042.248	31.32056
1042.609	28.50529
1042.97	21.41923
1043.331	31.35377
1043.692	31.78955
1044.053	33.76183
1044.413	44.47577
1044.774	36.69183
1045.135	39.78151
1045.495	35.40581
1045.856	42.147
1046.216	25.24512
1046.577	34.10261
1046.937	30.72305
1047.298	30.26611
