Data from 1015water_Reflection__5__16-50-57-584.txt Node

Date: Wed Oct 15 16:50:57 AST 2025
User: lin
Spectrometer: SR600411
Trigger mode: 0
Integration Time (sec): 5.819800E-2
Scans to average: 5
Nonlinearity correction enabled: true
Boxcar width: 0
Storing dark spectrum: false
XAxis mode: Wavelengths
Number of Pixels in Spectrum: 2048
>>>>>Begin Spectral Data<<<<<
187.982	60.42661
188.456	62.349
188.93	56.90469
189.403	48.95075
189.877	47.14241
190.351	61.21064
190.825	44.78918
191.298	70.16361
191.772	69.86449
192.246	51.60215
192.719	64.91937
193.193	45.31021
193.666	67.84987
194.139	52.40304
194.613	51.60811
195.086	46.03377
195.559	55.63832
196.033	50.96511
196.506	66.65068
196.979	57.86216
197.452	60.932
197.925	57.30763
198.398	61.73129
198.871	58.50579
199.344	60.60986
199.816	59.86586
200.289	62.85223
200.762	50.87375
201.235	57.07301
201.707	51.11003
202.18	47.60865
202.652	61.52869
203.125	51.69582
203.597	54.02934
204.07	36.91707
204.542	51.06604
205.014	63.99314
205.486	56.83286
205.959	52.97267
206.431	56.33557
206.903	51.91534
207.375	58.71266
207.847	37.84484
208.319	47.8181
208.791	66.46634
209.263	58.22403
209.734	14.40389
210.206	93.33185
210.678	20.99671
211.15	45.05047
211.621	75.99638
212.093	37.89744
212.564	55.16672
213.036	49.2288
213.507	71.14961
213.979	64.91931
214.45	58.90853
214.921	55.38886
215.392	40.6204
215.864	64.95198
216.335	48.17636
216.806	50.66295
217.277	33.32777
217.748	62.09097
218.219	53.01276
218.69	33.11011
219.161	36.95227
219.631	66.91145
220.102	74.99657
220.573	56.74955
221.043	48.8126
221.514	37.07453
221.985	97.14247
222.455	49.42937
222.926	47.05462
223.396	61.10602
223.866	65.5683
224.337	43.39105
224.807	43.43667
225.277	75.55226
225.747	26.5921
226.217	84.20752
226.687	61.23423
227.157	52.02643
227.627	59.55232
228.097	45.1983
228.567	46.89706
229.037	55.35165
229.507	42.98544
229.977	44.04895
230.446	53.42864
230.916	37.03204
231.386	54.6344
231.855	55.85042
232.325	70.30985
232.794	77.67472
233.263	30.82825
233.733	76.11698
234.202	83.67081
234.671	30.90442
235.14	79.7443
235.61	73.01094
236.079	43.15327
236.548	41.78457
237.017	61.31576
237.486	54.99509
237.955	106.81882
238.424	51.36262
238.892	76.54032
239.361	50.4533
239.83	58.6165
240.299	49.99514
240.767	102.70311
241.236	50.3874
241.704	37.97099
242.173	75.63817
242.641	49.55191
243.109	94.66591
243.578	56.02147
244.046	63.32919
244.514	51.55615
244.982	67.58789
245.451	48.07176
245.919	71.42431
246.387	55.73172
246.855	13.20513
247.323	69.99625
247.791	68.37105
248.258	60.97173
248.726	61.46968
249.194	20.25063
249.662	42.85306
250.129	67.26792
250.597	92.98172
251.064	70.12667
251.532	59.99547
251.999	45.18719
252.467	106.09861
252.934	56.81175
253.401	58.82027
253.869	34.58049
254.336	30.90443
254.803	24.26809
255.27	41.06604
255.737	43.74687
256.204	41.27916
256.671	74.44105
257.138	54.68435
257.605	81.72768
258.072	37.03204
258.539	59.99595
259.005	51.0369
259.472	40.18181
259.939	35.23334
260.405	63.88559
260.872	54.45047
261.338	29.40966
261.805	42.58735
262.271	57.13707
262.737	39.5308
263.203	50.84453
263.67	88.88765
264.136	44.5607
264.602	49.99414
265.068	-9.67611
265.534	44.99508
266	37.06359
266.466	63.32918
266.932	33.76281
267.398	38.45604
267.864	58.58109
268.329	69.38362
268.795	30.29888
269.261	68.62309
269.726	67.95671
270.192	9.4582
270.657	62.63313
271.123	23.65258
271.588	50.38119
272.053	93.05463
272.519	42.36715
272.984	39.99428
273.449	47.40805
273.914	36.25956
274.379	41.50432
274.844	40.73556
275.309	37.60138
275.774	21.97492
276.239	60.46103
276.704	36.96928
277.169	84.61303
277.634	52.58046
278.098	54.11346
278.563	46.57173
279.028	62.49739
279.492	53.59383
279.957	61.10771
280.421	55.73173
280.886	0
281.35	43.13228
281.814	56.78617
282.279	32.90793
282.743	65.05649
283.207	94.28497
283.671	46.66296
284.135	25.4504
284.599	68.12794
285.063	79.99825
285.527	67.30314
285.991	54.23147
286.455	72.93784
286.919	45.79507
287.382	54.34329
287.846	36.48308
288.31	65.82798
288.773	39.67954
289.237	67.36427
289.7	63.63384
290.164	49.99384
290.627	73.8063
291.09	96.24943
291.554	63.99542
292.017	50.61327
292.48	32.72246
292.943	57.13911
293.406	64.07296
293.869	1.92288
294.332	94.62272
294.795	54.32445
295.258	75.63817
295.721	49.99315
296.184	74.22312
296.646	21.54783
297.109	48.03416
297.572	15.90675
298.034	52.56024
298.497	74.99762
298.959	42.85204
299.422	38.66313
299.884	49.31145
300.346	19.6411
300.809	75.60675
301.271	39.02051
301.733	50.92056
302.195	23.25277
302.657	56.85778
303.119	39.07634
303.581	65.14854
304.043	48.29923
304.505	8.47367
304.967	49.22754
305.429	39.32162
305.891	51.18631
306.352	48.71214
306.814	112.33078
307.275	21.34535
307.737	73.40061
308.198	27.00194
308.66	63.72081
309.121	63.91308
309.583	-1.92287
310.044	77.77345
310.505	62.36126
310.966	97.72688
311.428	53.16065
311.889	39.59916
312.35	96.55134
312.811	54.92609
313.272	58.64884
313.733	40.9952
314.193	-533.45268
314.654	43.05205
315.115	58.02077
315.576	9.8992
316.036	83.8693
316.497	43.74844
316.957	61.10856
317.418	-14.54363
317.878	41.66319
318.339	76.54032
318.799	29.16371
319.259	58.41097
319.72	54.99508
320.18	79.77243
320.64	56.7257
321.1	38.0913
321.56	41.66319
322.02	54.87401
322.48	18.88615
322.94	22.22037
323.4	48.64498
323.86	62.68345
324.319	52.99506
324.779	73.68128
325.239	78.07971
325.698	82.82549
326.158	62.82662
326.617	68.03705
327.077	59.76596
327.536	53.48412
327.996	22.22068
328.455	63.91308
328.914	12.3272
329.373	53.53046
329.832	58.53263
330.292	48.07434
330.751	78.74734
331.21	68.99576
331.668	82.35049
332.127	34.47885
332.586	55.0518
333.045	51.0369
333.504	65.5683
333.962	28.06789
334.421	64.57897
334.88	-10.25554
335.338	31.06358
335.797	54.92609
336.255	48.48157
336.714	74.03449
337.172	57.8273
337.63	89.35993
338.088	77.49723
338.547	76.80915
339.005	39.50233
339.463	60.54529
339.921	39.17067
340.379	76.03819
340.837	47.77332
341.295	23.70786
341.753	58.6179
342.21	49.49994
342.668	82.28889
343.126	55.43027
343.584	47.61489
344.041	48.17637
344.499	61.10772
344.956	66.66455
345.414	63.4416
345.871	71.92754
346.328	30.35244
346.786	10.88914
347.243	47.88381
347.7	52.56024
348.157	54.12878
348.614	69.31446
349.071	63.41086
349.528	50.93813
349.985	40.39931
350.442	100
350.899	27.90354
351.356	60.16387
351.812	27.90354
352.269	51.31202
352.726	66.15096
353.182	36.83859
353.639	119.23314
354.095	23.92739
354.552	76.78175
355.008	42.23576
355.465	69.15435
355.921	33.32976
356.377	51.84651
356.833	42.85204
357.289	45.78912
357.745	56.5986
358.201	52.49406
358.657	37.4959
359.113	53.77564
359.569	60.86195
360.025	56.63166
360.481	75.23422
360.937	67.82885
361.392	58.95123
361.848	58.71267
362.303	39.99238
362.759	61.2228
363.214	52.98467
363.67	58.28367
364.125	39.44101
364.581	56.37801
365.036	46.45515
365.491	65.56737
365.946	61.921
366.401	48.68599
366.856	57.664
367.311	54.54919
367.766	57.71581
368.221	56.24555
368.676	58.2572
369.131	49.78753
369.586	60.82
370.041	49.37086
370.495	53.5295
370.95	57.56937
371.404	57.51554
371.859	57.23259
372.313	52.06572
372.768	56.65305
373.222	53.138
373.676	55.71203
374.131	56.02809
374.585	55.17505
375.039	55.12921
375.493	54.52869
375.947	56.39481
376.401	56.58042
376.855	56.89673
377.309	56.61009
377.763	56.21066
378.217	57.4998
378.67	54.68128
379.124	57.25556
379.578	53.02673
380.031	56.031
380.485	54.92486
380.938	55.45595
381.392	55.05485
381.845	56.31845
382.299	55.40519
382.752	55.01599
383.205	54.88246
383.658	55.09316
384.111	55.49572
384.564	54.56091
385.018	55.49344
385.471	55.48567
385.923	56.82916
386.376	54.47284
386.829	55.61438
387.282	55.73399
387.735	55.51392
388.187	54.97631
388.64	57.0619
389.093	55.5515
389.545	56.4846
389.998	55.81021
390.45	55.08288
390.902	55.77874
391.355	56.47732
391.807	56.39936
392.259	56.47579
392.711	56.73826
393.163	56.42881
393.615	56.54059
394.068	56.70028
394.519	56.28422
394.971	56.6055
395.423	56.44408
395.875	55.7789
396.327	56.72492
396.779	55.75289
397.23	56.20934
397.682	55.68393
398.133	56.4092
398.585	56.05748
399.036	56.12213
399.488	55.01779
399.939	55.36848
400.39	55.17291
400.842	56.22677
401.293	55.48152
401.744	56.17172
402.195	56.0331
402.646	54.77597
403.097	55.36138
403.548	54.69764
403.999	54.74295
404.45	54.60879
404.9	54.76979
405.351	55.14363
405.802	54.72253
406.253	54.28239
406.703	53.88914
407.154	54.37106
407.604	54.16502
408.055	54.00059
408.505	53.59169
408.955	52.9116
409.406	53.40213
409.856	53.41931
410.306	52.58825
410.756	52.87116
411.206	53.05147
411.656	52.68686
412.106	52.28303
412.556	51.50417
413.006	52.35943
413.456	52.59389
413.905	51.71624
414.355	51.29368
414.805	51.68752
415.254	51.60506
415.704	50.60924
416.153	50.70348
416.603	50.32501
417.052	50.61522
417.502	51.06431
417.951	50.36972
418.4	50.20121
418.849	49.45603
419.298	49.84917
419.748	49.46804
420.197	49.6132
420.646	49.75667
421.094	49.69342
421.543	49.635
421.992	49.2985
422.441	49.3266
422.89	48.93349
423.338	48.86163
423.787	48.83708
424.236	49.28377
424.684	48.27502
425.133	47.84079
425.581	48.26824
426.029	48.37938
426.478	47.9508
426.926	47.87123
427.374	48.19848
427.822	47.76174
428.27	47.73507
428.718	47.14799
429.166	47.89488
429.614	47.58695
430.062	47.26757
430.51	46.44362
430.958	47.17181
431.406	47.01107
431.853	46.19256
432.301	46.87331
432.749	46.32297
433.196	47.03457
433.644	46.48402
434.091	46.55698
434.538	45.94865
434.986	46.15293
435.433	46.3028
435.88	45.93236
436.327	46.39707
436.775	45.96751
437.222	46.11107
437.669	45.85497
438.116	45.76538
438.563	45.50873
439.009	46.15787
439.456	46.16904
439.903	46.02252
440.35	45.49568
440.796	45.80644
441.243	45.61593
441.689	45.61445
442.136	45.8841
442.582	45.50827
443.029	45.77076
443.475	45.41882
443.921	45.34371
444.368	44.9629
444.814	45.58466
445.26	45.78806
445.706	45.27752
446.152	45.73151
446.598	46.23403
447.044	45.6424
447.49	45.96563
447.936	45.7871
448.381	45.88556
448.827	45.98685
449.273	46.07139
449.718	46.05705
450.164	45.85172
450.61	45.33373
451.055	45.88268
451.5	46.12388
451.946	45.88639
452.391	46.25774
452.836	45.74156
453.282	46.01465
453.727	46.01572
454.172	45.95929
454.617	46.2598
455.062	45.74032
455.507	45.86807
455.952	46.53456
456.396	45.90467
456.841	46.67569
457.286	46.65924
457.731	46.59851
458.175	46.77409
458.62	46.17433
459.064	46.87005
459.509	46.37884
459.953	46.51751
460.398	47.05996
460.842	47.04022
461.286	47.42403
461.73	47.20656
462.174	47.57479
462.619	47.4805
463.063	47.42821
463.507	47.495
463.951	47.79357
464.394	48.06999
464.838	48.20427
465.282	48.21358
465.726	48.26423
466.17	48.566
466.613	48.194
467.057	48.79562
467.5	48.47833
467.944	48.71524
468.387	48.74474
468.831	48.88381
469.274	49.377
469.717	49.93869
470.16	50.09905
470.603	49.92801
471.047	50.66352
471.49	50.57747
471.933	50.45285
472.376	50.8564
472.818	51.25186
473.261	51.49058
473.704	51.43699
474.147	51.41372
474.59	51.87706
475.032	52.15605
475.475	52.25429
475.917	52.07911
476.36	52.42329
476.802	52.67331
477.245	53.02989
477.687	52.9405
478.129	53.57593
478.571	53.11524
479.013	53.88685
479.456	53.91216
479.898	54.24441
480.34	54.14782
480.782	54.13503
481.224	54.30466
481.665	54.64947
482.107	54.47339
482.549	54.86366
482.991	54.87388
483.432	54.51668
483.874	54.97878
484.315	54.91079
484.757	55.04466
485.198	55.16257
485.64	55.30679
486.081	56.0747
486.522	56.39997
486.963	55.98398
487.405	55.90694
487.846	56.72211
488.287	56.22246
488.728	56.33011
489.169	56.48251
489.61	56.87186
490.05	56.65856
490.491	56.64647
490.932	56.93197
491.373	56.80349
491.813	56.81098
492.254	56.68495
492.694	56.98064
493.135	56.97515
493.575	57.05451
494.016	56.97662
494.456	57.34509
494.896	57.35915
495.336	57.96682
495.777	57.85672
496.217	57.94573
496.657	57.86588
497.097	58.65596
497.537	58.43233
497.977	58.36577
498.416	58.48219
498.856	58.86254
499.296	58.25543
499.736	58.46736
500.175	58.55969
500.615	59.0643
501.054	58.834
501.494	59.20073
501.933	59.35961
502.373	59.31812
502.812	59.50798
503.251	59.34049
503.69	59.9116
504.129	60.10705
504.569	60.34565
505.008	60.36406
505.447	60.16362
505.886	60.54596
506.324	60.99911
506.763	60.52287
507.202	61.11985
507.641	61.59368
508.079	61.80287
508.518	62.18315
508.957	62.49828
509.395	62.25048
509.834	62.71673
510.272	63.4829
510.71	63.47231
511.149	63.27648
511.587	63.58239
512.025	63.83878
512.463	64.50258
512.901	64.60644
513.339	64.33247
513.777	64.91156
514.215	64.45534
514.653	64.58332
515.091	65.30359
515.529	65.44939
515.966	65.82224
516.404	66.36433
516.842	65.81839
517.279	66.27819
517.717	66.68458
518.154	66.4373
518.592	66.95665
519.029	67.17039
519.466	67.2253
519.904	67.52628
520.341	67.78117
520.778	68.23599
521.215	68.88698
521.652	69.02399
522.089	69.00029
522.526	69.20718
522.963	69.44963
523.399	70.01503
523.836	70.36634
524.273	70.34016
524.71	70.72522
525.146	70.97208
525.583	71.63567
526.019	71.15756
526.456	71.40442
526.892	71.63405
527.328	71.73792
527.765	72.00262
528.201	72.28912
528.637	73.09352
529.073	72.5432
529.509	72.74548
529.945	72.98724
530.381	73.33566
530.817	73.22801
531.253	73.67324
531.689	74.16087
532.124	73.70775
532.56	73.70054
532.996	73.87346
533.431	73.80647
533.867	74.1482
534.302	74.71721
534.738	74.76602
535.173	75.10106
535.608	75.28414
536.044	75.43346
536.479	75.25066
536.914	75.41327
537.349	75.11841
537.784	75.3147
538.219	75.78745
538.654	75.45447
539.089	75.71823
539.524	75.32019
539.959	75.43459
540.393	75.55945
540.828	76.11334
541.263	76.34885
541.697	76.74357
542.132	76.39704
542.566	76.5536
543.001	76.68083
543.435	76.28075
543.869	76.56761
544.303	76.27216
544.738	76.48858
545.172	76.25814
545.606	76.43753
546.04	76.28033
546.474	76.82052
546.908	76.04524
547.342	76.47345
547.775	76.34456
548.209	76.22065
548.643	75.95683
549.077	76.69641
549.51	76.73098
549.944	76.56591
550.377	76.02762
550.811	76.40722
551.244	76.18297
551.677	75.30389
552.111	75.59886
552.544	75.55031
552.977	75.93483
553.41	75.25268
553.843	75.65651
554.276	75.04628
554.709	74.89313
555.142	74.30252
555.575	74.42874
556.008	75.08332
556.44	73.92789
556.873	73.54217
557.306	73.06751
557.738	73.02825
558.171	73.30331
558.603	73.31439
559.036	72.92163
559.468	72.30568
559.9	72.08705
560.333	72.05641
560.765	71.82257
561.197	71.87702
561.629	71.5253
562.061	70.94633
562.493	70.82876
562.925	70.0224
563.357	70.32368
563.789	70.44389
564.22	70.35556
564.652	69.93563
565.084	70.40592
565.515	69.7825
565.947	68.96599
566.378	68.58084
566.81	68.77314
567.241	68.73893
567.672	68.36853
568.104	68.11699
568.535	67.82939
568.966	67.61715
569.397	67.85311
569.828	67.46872
570.259	66.84594
570.69	66.19645
571.121	65.88506
571.552	65.82916
571.983	65.46037
572.414	65.44227
572.844	65.33521
573.275	64.68472
573.705	64.94923
574.136	64.58306
574.566	64.68193
574.997	64.37784
575.427	64.10195
575.857	63.99186
576.288	63.4122
576.718	63.72673
577.148	63.2497
577.578	62.92521
578.008	62.74102
578.438	62.72526
578.868	61.81837
579.298	61.72834
579.728	61.47105
580.157	61.14267
580.587	60.72899
581.017	60.01193
581.446	60.28059
581.876	59.9405
582.305	59.54138
582.735	59.08075
583.164	59.08924
583.593	58.41332
584.023	58.53682
584.452	58.42369
584.881	58.02872
585.31	58.05861
585.739	57.80328
586.168	57.91153
586.597	57.71817
587.026	57.79739
587.455	57.71355
587.884	57.88664
588.312	57.52468
588.741	57.04421
589.17	57.06237
589.598	56.63813
590.027	56.64819
590.455	56.43061
590.884	56.19985
591.312	56.15726
591.74	56.03664
592.168	55.25527
592.597	55.12137
593.025	55.0208
593.453	54.621
593.881	54.38917
594.309	53.87461
594.737	53.36407
595.165	53.67962
595.592	53.33476
596.02	53.21357
596.448	53.03904
596.875	52.74005
597.303	52.91137
597.73	52.62374
598.158	51.98149
598.585	52.01185
599.013	51.81828
599.44	51.65885
599.867	51.5664
600.294	51.46797
600.722	51.83623
601.149	51.60924
601.576	51.3264
602.003	51.08549
602.43	51.27871
602.856	51.1395
603.283	51.28245
603.71	50.90729
604.137	50.77846
604.563	50.72277
604.99	50.20718
605.416	50.11404
605.843	49.50068
606.269	49.41402
606.696	49.66503
607.122	49.47193
607.548	49.46971
607.975	49.73838
608.401	49.96908
608.827	49.3238
609.253	49.2422
609.679	48.979
610.105	48.52543
610.531	48.40243
610.956	48.40758
611.382	48.77892
611.808	48.68956
612.234	48.5392
612.659	48.44349
613.085	48.47889
613.51	48.32491
613.936	47.94411
614.361	47.48971
614.786	47.86199
615.212	47.4643
615.637	47.11824
616.062	47.16884
616.487	46.99757
616.912	47.6467
617.337	47.37022
617.762	47.39027
618.187	46.77389
618.612	47.42494
619.037	46.73926
619.461	47.19467
619.886	47.01635
620.311	46.76822
620.735	47.14108
621.16	47.01645
621.584	46.72162
622.008	46.96095
622.433	46.51899
622.857	46.83209
623.281	46.56165
623.705	46.4716
624.13	46.60026
624.554	46.37913
624.978	46.84909
625.402	46.58253
625.826	46.56888
626.249	46.82614
626.673	46.29849
627.097	46.72629
627.521	46.46683
627.944	46.5526
628.368	46.47586
628.791	46.69231
629.215	46.71403
629.638	46.5255
630.061	46.64871
630.485	46.68866
630.908	47.18408
631.331	46.75617
631.754	47.13015
632.177	47.21496
632.6	46.77647
633.023	47.06024
633.446	47.33344
633.869	47.29507
634.292	47.91167
634.715	47.80496
635.137	47.86073
635.56	47.61225
635.982	48.19473
636.405	47.88997
636.827	48.09339
637.25	48.15386
637.672	48.1585
638.094	48.54638
638.517	48.95786
638.939	48.28362
639.361	49.19046
639.783	49.10564
640.205	49.3465
640.627	49.37598
641.049	49.5561
641.471	49.75071
641.893	49.36234
642.314	50.13128
642.736	49.605
643.158	49.8959
643.579	50.52256
644.001	50.04056
644.422	49.94909
644.844	49.83827
645.265	50.48204
645.686	50.52597
646.107	50.14412
646.529	50.60662
646.95	50.80047
647.371	51.08848
647.792	50.74118
648.213	50.85695
648.634	51.81354
649.055	51.48446
649.475	51.79326
649.896	51.82008
650.317	51.85186
650.737	52.2541
651.158	52.44869
651.578	53.05492
651.999	52.89016
652.419	52.67059
652.84	53.41107
653.26	53.23716
653.68	53.7977
654.1	53.9176
654.521	53.95992
654.941	53.64014
655.361	54.3909
655.781	54.23193
656.2	54.65786
656.62	54.7395
657.04	55.76387
657.46	55.54469
657.879	55.46679
658.299	55.77555
658.719	56.52089
659.138	55.60017
659.558	56.62152
659.977	56.1632
660.396	56.66135
660.816	56.40544
661.235	56.63501
661.654	56.84975
662.073	57.43589
662.492	57.34948
662.911	57.48313
663.33	57.99974
663.749	57.17851
664.168	57.74055
664.587	58.16011
665.006	58.19823
665.424	58.77256
665.843	58.45198
666.261	59.02134
666.68	58.91859
667.098	59.42545
667.517	58.91981
667.935	58.4961
668.353	58.95448
668.772	59.08082
669.19	59.54871
669.608	59.73821
670.026	59.96774
670.444	59.42914
670.862	59.55229
671.28	59.77708
671.698	59.33966
672.115	60.27394
672.533	60.19819
672.951	60.42043
673.368	60.63574
673.786	59.99573
674.203	60.50953
674.621	59.82976
675.038	60.02265
675.456	60.45802
675.873	59.92294
676.29	60.09844
676.707	60.0345
677.124	59.65693
677.541	60.10881
677.958	59.38212
678.375	59.9133
678.792	59.552
679.209	58.96437
679.626	60.02154
680.043	59.90293
680.459	60.50271
680.876	59.84755
681.292	60.0803
681.709	59.537
682.125	59.37789
682.542	59.7369
682.958	59.01958
683.374	59.87315
683.79	59.58571
684.207	59.53035
684.623	59.01865
685.039	59.25996
685.455	59.31188
685.871	58.71727
686.286	59.4009
686.702	58.31453
687.118	58.26901
687.534	58.63289
687.949	58.598
688.365	58.55938
688.781	57.9445
689.196	57.65286
689.611	57.22171
690.027	57.43865
690.442	57.25139
690.857	57.55658
691.273	57.00565
691.688	56.92998
692.103	57.17098
692.518	55.93643
692.933	56.74928
693.348	56.00759
693.763	56.37966
694.177	55.64123
694.592	55.7948
695.007	55.22032
695.421	55.24844
695.836	55.06539
696.25	54.53141
696.665	54.19875
697.079	54.22733
697.494	53.85742
697.908	53.72479
698.322	53.9099
698.736	53.14118
699.151	53.51402
699.565	52.88309
699.979	52.60639
700.393	51.81581
700.806	52.29975
701.22	52.31829
701.634	51.75627
702.048	51.69336
702.461	51.17866
702.875	51.43095
703.289	50.67441
703.702	50.82337
704.116	50.12337
704.529	50.40977
704.942	49.40644
705.356	49.74157
705.769	49.53336
706.182	48.88873
706.595	48.60874
707.008	47.96322
707.421	47.72093
707.834	47.73903
708.247	47.26993
708.66	46.83287
709.072	47.1375
709.485	46.32764
709.898	46.30056
710.31	45.72479
710.723	46.08117
711.135	45.14206
711.548	44.96025
711.96	44.40712
712.373	44.59027
712.785	43.93603
713.197	44.23072
713.609	43.61987
714.021	43.72791
714.433	42.75462
714.845	42.96508
715.257	42.49696
715.669	42.39886
716.081	41.77155
716.493	41.73718
716.904	40.87032
717.316	41.10134
717.727	40.64572
718.139	40.56713
718.55	40.00962
718.962	40.2838
719.373	39.78114
719.784	39.3792
720.196	39.47533
720.607	39.32607
721.018	38.85184
721.429	38.45065
721.84	38.52658
722.251	37.74754
722.662	37.76779
723.073	37.74626
723.483	37.49419
723.894	36.97986
724.305	36.66732
724.715	36.92969
725.126	36.43164
725.536	35.75411
725.947	35.83013
726.357	35.54801
726.768	35.80429
727.178	35.17978
727.588	35.11721
727.998	34.82312
728.408	34.88369
728.818	34.60329
729.228	33.97024
729.638	33.90714
730.048	33.83316
730.458	33.72258
730.868	33.48937
731.277	33.18558
731.687	32.87006
732.097	33.00079
732.506	32.73344
732.916	32.58536
733.325	32.35216
733.734	32.41273
734.144	32.15485
734.553	32.00115
734.962	31.42644
735.371	31.51671
735.78	30.57303
736.189	31.1555
736.598	30.48187
737.007	30.9628
737.416	29.98987
737.825	30.45028
738.233	29.71323
738.642	30.64848
739.051	29.72514
739.459	30.01897
739.868	29.57748
740.276	29.71511
740.684	29.51861
741.093	29.13251
741.501	28.88148
741.909	28.67124
742.317	28.97431
742.725	28.35871
743.133	28.51163
743.541	28.12716
743.949	28.60051
744.357	27.82121
744.765	28.17319
745.173	27.5202
745.58	28.22584
745.988	27.37423
746.396	27.7893
746.803	26.86985
747.211	27.55866
747.618	26.77068
748.025	26.77349
748.433	26.86822
748.84	26.60286
749.247	27.15151
749.654	26.36769
750.061	26.99823
750.468	26.19375
750.875	27.15563
751.282	26.35187
751.689	26.64714
752.096	25.85352
752.502	26.62886
752.909	26.33489
753.316	26.21285
753.722	26.21671
754.129	25.49685
754.535	26.12572
754.941	25.33166
755.348	26.20592
755.754	25.2543
756.16	25.98579
756.566	25.15509
756.972	25.44848
757.378	25.44328
757.784	25.30734
758.19	25.71222
758.596	25.29456
759.002	25.32939
759.408	24.85223
759.813	25.12393
760.219	24.86472
760.624	24.71225
761.03	24.66845
761.435	24.733
761.841	24.54261
762.246	24.26247
762.651	24.44081
763.057	23.86225
763.462	24.80292
763.867	24.14657
764.272	24.95668
764.677	24.64599
765.082	25.07034
765.487	24.87552
765.892	24.60496
766.296	25.03515
766.701	23.88943
767.106	24.68995
767.51	24.04993
767.915	24.37115
768.319	24.26167
768.724	24.12205
769.128	23.88815
769.532	23.74383
769.936	24.20803
770.341	23.70567
770.745	23.96237
771.149	23.33638
771.553	23.89975
771.957	23.86065
772.361	23.20452
772.764	23.84507
773.168	22.96752
773.572	23.8053
773.976	23.38985
774.379	23.91058
774.783	23.67421
775.186	23.19724
775.59	23.73604
775.993	22.81251
776.396	23.75942
776.8	22.90695
777.203	23.95223
777.606	23.48324
778.009	23.13716
778.412	23.44584
778.815	22.97641
779.218	23.64693
779.621	23.45712
780.023	23.5616
780.426	23.91974
780.829	23.43401
781.231	24.26522
781.634	23.13273
782.036	23.55653
782.439	23.27485
782.841	23.1808
783.244	23.66334
783.646	22.65652
784.048	23.68341
784.45	23.34895
784.852	23.39949
785.254	23.12021
785.656	23.21596
786.058	23.8761
786.46	22.90668
786.862	23.19032
787.264	22.82646
787.665	23.11522
788.067	23.30219
788.468	22.781
788.87	23.61477
789.271	22.86193
789.673	23.37912
790.074	23.32051
790.475	23.08391
790.877	23.70372
791.278	23.24102
791.679	23.56118
792.08	23.3197
792.481	23.31139
792.882	23.7926
793.283	22.87973
793.683	23.18013
794.084	23.18005
794.485	23.06018
794.886	23.15219
795.286	22.82115
795.687	23.42432
796.087	22.73738
796.487	23.0938
796.888	23.08133
797.288	22.81264
797.688	23.14032
798.088	22.93256
798.489	23.04467
798.889	23.2998
799.289	23.01043
799.689	23.06328
800.088	22.68491
800.488	22.987
800.888	22.7805
801.288	22.95181
801.687	23.61849
802.087	23.37395
802.486	23.4091
802.886	23.80514
803.285	23.34186
803.685	23.91744
804.084	23.74922
804.483	24.00874
804.882	24.73026
805.281	23.47288
805.68	24.44492
806.079	24.13175
806.478	23.29603
806.877	24.05299
807.276	23.25031
807.675	24.13076
808.074	23.92964
808.472	23.82595
808.871	24.28684
809.269	23.98489
809.668	23.65993
810.066	23.85994
810.465	23.93568
810.863	24.41462
811.261	24.43927
811.659	24.09079
812.057	24.27378
812.455	23.62492
812.853	24.26302
813.251	24.01767
813.649	23.7621
814.047	24.75001
814.445	23.90876
814.843	24.12658
815.24	24.15774
815.638	24.19767
816.035	24.44096
816.433	24.15911
816.83	24.21203
817.228	24.05234
817.625	23.90074
818.022	24.14027
818.419	23.903
818.816	23.82092
819.213	24.16698
819.61	24.03352
820.007	24.17654
820.404	24.62397
820.801	24.14029
821.198	25.15612
821.595	24.72053
821.991	24.67014
822.388	25.34883
822.784	25.01667
823.181	25.39884
823.577	25.69292
823.974	25.33292
824.37	25.60016
824.766	25.37805
825.162	24.93892
825.558	25.40674
825.954	24.59355
826.35	24.86932
826.746	25.5053
827.142	25.26524
827.538	25.55633
827.934	25.62552
828.33	25.16451
828.725	25.57029
829.121	25.35313
829.516	25.09886
829.912	25.06831
830.307	24.67214
830.703	25.12279
831.098	24.9652
831.493	24.62847
831.888	24.9915
832.283	24.64258
832.678	24.58624
833.073	25.53139
833.468	25.09953
833.863	25.233
834.258	25.74368
834.653	24.93525
835.048	25.76195
835.442	25.5711
835.837	25.14486
836.231	25.7854
836.626	25.88389
837.02	25.57665
837.415	25.95816
837.809	25.53448
838.203	25.30261
838.597	25.80331
838.991	24.2198
839.385	25.26921
839.779	25.84447
840.173	25.09145
840.567	25.695
840.961	26.34337
841.355	25.71159
841.748	25.95615
842.142	25.56877
842.536	25.46946
842.929	25.81753
843.323	25.45938
843.716	26.01533
844.109	26.57723
844.503	25.84532
844.896	25.70376
845.289	26.55566
845.682	26.20847
846.075	26.31954
846.468	26.19759
846.861	25.61378
847.254	26.37037
847.647	25.82711
848.04	25.46512
848.432	25.93105
848.825	25.16279
849.217	26.03228
849.61	26.01092
850.002	25.2943
850.395	25.5554
850.787	25.9434
851.179	25.22219
851.572	26.96753
851.964	26.0009
852.356	25.88765
852.748	25.2541
853.14	26.31032
853.532	25.93325
853.924	26.37294
854.315	26.13555
854.707	26.35898
855.099	26.73381
855.491	26.80885
855.882	26.03625
856.274	26.88785
856.665	26.2617
857.056	25.28065
857.448	25.61843
857.839	26.64126
858.23	25.63305
858.621	25.93673
859.012	26.29478
859.403	24.64238
859.794	26.07196
860.185	27.37352
860.576	26.20599
860.967	25.94906
861.358	25.79468
861.748	25.69732
862.139	25.20626
862.529	26.02155
862.92	25.46759
863.31	25.90347
863.701	26.11964
864.091	25.37126
864.481	25.73217
864.872	26.70128
865.262	25.43722
865.652	25.71927
866.042	26.4074
866.432	24.973
866.822	26.23694
867.211	25.42418
867.601	24.88983
867.991	26.38406
868.381	25.61439
868.77	25.64311
869.16	25.51442
869.549	25.99118
869.939	25.38147
870.328	25.30586
870.717	26.0092
871.106	25.05294
871.496	26.25499
871.885	24.51578
872.274	25.20866
872.663	25.98836
873.052	25.37704
873.441	25.00222
873.829	25.6664
874.218	25.66481
874.607	24.89088
874.996	25.8336
875.384	25.36975
875.773	24.97088
876.161	25.53856
876.549	25.96411
876.938	25.90495
877.326	25.51578
877.714	25.66495
878.102	25.15634
878.491	24.71524
878.879	25.62838
879.267	25.28406
879.655	24.59346
880.042	25.76273
880.43	25.39732
880.818	25.32599
881.206	25.7482
881.593	25.93426
881.981	25.16536
882.368	25.86235
882.756	25.86823
883.143	25.52938
883.53	25.70896
883.918	25.61523
884.305	25.15848
884.692	25.39343
885.079	25.80386
885.466	24.80337
885.853	24.99801
886.24	25.84968
886.627	25.42709
887.014	24.74504
887.4	25.4833
887.787	25.17356
888.174	25.2945
888.56	24.87519
888.947	25.78413
889.333	24.79677
889.719	25.94873
890.106	24.97627
890.492	25.00665
890.878	25.30917
891.264	25.4099
891.65	24.73393
892.036	24.83096
892.422	25.287
892.808	24.7503
893.194	24.52944
893.58	24.4814
893.965	24.74104
894.351	24.3516
894.736	25.15278
895.122	24.77623
895.507	24.363
895.893	24.54363
896.278	24.77831
896.663	24.6205
897.049	24.74929
897.434	25.42565
897.819	25.19383
898.204	24.84081
898.589	25.68378
898.974	24.77055
899.359	24.67572
899.743	25.84062
900.128	25.64746
900.513	25.16161
900.897	25.41133
901.282	24.60101
901.667	24.56592
902.051	24.23204
902.435	24.83043
902.82	24.00883
903.204	24.10748
903.588	24.58325
903.972	25.07789
904.356	24.80504
904.74	24.48859
905.124	24.69594
905.508	25.09036
905.892	24.8479
906.276	25.31174
906.659	24.29067
907.043	24.85602
907.427	25.08664
907.81	24.63763
908.194	24.64849
908.577	25.02745
908.96	25.00757
909.344	24.85795
909.727	23.8956
910.11	25.18827
910.493	24.0108
910.876	23.42671
911.259	24.63951
911.642	24.08307
912.025	23.5345
912.408	23.97433
912.79	24.45265
913.173	23.62889
913.556	23.68586
913.938	24.09991
914.321	23.79991
914.703	23.05788
915.086	23.60616
915.468	24.10585
915.85	23.25691
916.232	23.33813
916.614	24.05067
916.996	23.84409
917.378	24.08277
917.76	23.94183
918.142	24.28826
918.524	24.65757
918.906	24.57448
919.288	25.01366
919.669	25.14151
920.051	24.3126
920.432	25.09441
920.814	24.82468
921.195	24.21767
921.577	24.30204
921.958	24.40494
922.339	25.2739
922.72	24.32724
923.101	24.88736
923.482	25.2939
923.863	24.02332
924.244	24.70466
924.625	24.34699
925.006	25.37876
925.387	24.93551
925.767	24.45097
926.148	24.43277
926.528	23.83813
926.909	24.05418
927.289	24.06372
927.67	24.68398
928.05	23.963
928.43	23.75929
928.81	24.87275
929.191	24.77569
929.571	24.81064
929.951	23.08789
930.331	24.11861
930.71	23.65802
931.09	23.24593
931.47	25.06106
931.85	24.15009
932.229	24.73726
932.609	24.90533
932.988	25.305
933.368	23.10568
933.747	24.89732
934.127	24.35108
934.506	23.81526
934.885	22.92504
935.264	24.07681
935.643	23.72249
936.022	23.9919
936.401	23.74478
936.78	24.67392
937.159	23.43658
937.538	23.72551
937.916	24.96338
938.295	24.54641
938.674	23.21357
939.052	23.45145
939.431	23.7344
939.809	24.31088
940.187	24.59071
940.566	23.51186
940.944	25.03917
941.322	24.88589
941.7	24.6
942.078	25.37483
942.456	23.44496
942.834	24.95518
943.212	25.10667
943.59	24.57512
943.968	23.78709
944.345	24.4976
944.723	23.3456
945.1	24.30012
945.478	23.41275
945.855	24.32447
946.233	24.3598
946.61	23.44021
946.987	24.06343
947.365	23.00536
947.742	24.64386
948.119	22.83776
948.496	22.18012
948.873	22.6141
949.25	23.91298
949.626	23.45581
950.003	23.68156
950.38	24.24687
950.756	23.36467
951.133	25.39976
951.51	23.96412
951.886	24.35567
952.262	22.53845
952.639	23.9489
953.015	23.45478
953.391	24.31164
953.767	23.46878
954.143	23.73839
954.519	23.67842
954.895	23.59304
955.271	23.26411
955.647	22.39847
956.023	21.93985
956.399	23.90116
956.774	24.08993
957.15	24.81378
957.525	23.6528
957.901	21.44517
958.276	22.54949
958.652	20.31192
959.027	24.51004
959.402	21.46134
959.777	22.4251
960.152	23.46994
960.527	21.73628
960.902	23.07937
961.277	21.37312
961.652	21.57384
962.027	22.62998
962.402	22.41989
962.776	21.82844
963.151	19.75471
963.525	21.53386
963.9	23.11194
964.274	21.49121
964.649	21.29715
965.023	21.84491
965.397	26.4402
965.771	20.52575
966.146	21.7911
966.52	21.73282
966.894	23.01648
967.268	19.83787
967.641	22.34378
968.015	20.40595
968.389	21.85071
968.763	21.66636
969.136	21.10649
969.51	21.42642
969.883	22.4244
970.257	22.50679
970.63	23.31247
971.003	22.15136
971.377	23.7042
971.75	19.82008
972.123	22.71862
972.496	22.74768
972.869	20.47092
973.242	20.60155
973.615	22.01073
973.988	21.96346
974.36	22.28609
974.733	21.80613
975.106	22.19349
975.478	21.2584
975.851	21.48555
976.223	21.00562
976.596	20.25206
976.968	23.29876
977.34	22.10061
977.712	20.79634
978.085	20.00175
978.457	20.4678
978.829	20.94165
979.201	22.14764
979.573	20.5776
979.944	20.27501
980.316	21.44275
980.688	21.72017
981.059	21.82708
981.431	20.56441
981.803	22.31675
982.174	21.34543
982.545	20.25989
982.917	22.75448
983.288	21.90728
983.659	23.12379
984.03	21.35289
984.401	20.68244
984.772	22.08473
985.143	22.85095
985.514	20.64865
985.885	21.50996
986.256	22.02348
986.627	21.38961
986.997	19.73832
987.368	21.29039
987.738	20.13745
988.109	20.79275
988.479	21.18469
988.85	20.07039
989.22	20.15708
989.59	20.79736
989.96	19.26987
990.33	20.45575
990.7	18.97057
991.07	20.38556
991.44	19.29126
991.81	20.77835
992.18	20.24099
992.549	19.73347
992.919	21.07616
993.289	21.11131
993.658	19.70777
994.028	21.05425
994.397	19.83441
994.766	19.30685
995.136	20.26218
995.505	19.47874
995.874	20.92127
996.243	20.12452
996.612	20.87196
996.981	21.82711
997.35	21.11266
997.719	22.23046
998.088	20.40956
998.456	20.24108
998.825	20.87635
999.194	21.94314
999.562	19.58568
999.931	23.36659
1000.299	21.83574
1000.667	21.95432
1001.036	18.94895
1001.404	24.27314
1001.772	22.3729
1002.14	21.88152
1002.508	20.05733
1002.876	23.61156
1003.244	23.49972
1003.612	22.90104
1003.98	18.73363
1004.347	20.34407
1004.715	20.49976
1005.083	19.9
1005.45	17.35093
1005.818	20.00931
1006.185	23.21685
1006.552	21.93776
1006.92	22.0751
1007.287	18.70411
1007.654	20.88712
1008.021	18.57979
1008.388	21.61114
1008.755	20.56886
1009.122	19.66183
1009.489	19.0927
1009.856	15.87602
1010.222	20.0326
1010.589	21.26262
1010.956	20.09009
1011.322	23.26012
1011.689	21.24481
1012.055	18.43025
1012.421	20.2304
1012.788	18.3733
1013.154	21.33665
1013.52	21.57396
1013.886	20.33593
1014.252	21.83667
1014.618	23.36325
1014.984	19.06167
1015.35	17.15889
1015.716	22.08394
1016.081	23.72274
1016.447	22.69183
1016.813	19.45706
1017.178	19.3943
1017.544	24.98785
1017.909	19.00448
1018.274	23.25404
1018.64	25.78796
1019.005	25.55321
1019.37	18.02646
1019.735	20.87812
1020.1	20.16865
1020.465	19.08565
1020.83	23.2488
1021.195	19.01318
1021.56	22.96041
1021.924	16.78284
1022.289	14.22533
1022.654	23.88599
1023.018	25.06011
1023.383	18.35784
1023.747	22.85455
1024.111	24.81412
1024.476	25.79139
1024.84	24.54061
1025.204	13.73524
1025.568	17.03074
1025.932	20.843
1026.296	18.16763
1026.66	20.56018
1027.024	19.37265
1027.387	17.2439
1027.751	23.01039
1028.115	16.21584
1028.478	25.77496
1028.842	24.83025
1029.205	19.94298
1029.569	19.66601
1029.932	23.20066
1030.295	21.08661
1030.659	24.04132
1031.022	23.45739
1031.385	12.55278
1031.748	15.20114
1032.111	16.90428
1032.474	23.93605
1032.836	17.5396
1033.199	26.52403
1033.562	25.12301
1033.924	17.13304
1034.287	18.04845
1034.65	21.14015
1035.012	18.19678
1035.374	17.60234
1035.737	22.31295
1036.099	22.46644
1036.461	24.2874
1036.823	10.33952
1037.185	20.56873
1037.547	34.13939
1037.909	4.42195
1038.271	36.03082
1038.633	18.95093
1038.995	27.73195
1039.356	23.30035
1039.718	15.87056
1040.08	24.65564
1040.441	26.60984
1040.803	16.21929
1041.164	26.36314
1041.525	13.39538
1041.886	3.73272
1042.248	21.98981
1042.609	17.57078
1042.97	28.91717
1043.331	40.57747
1043.692	34.47107
1044.053	27.18404
1044.413	24.40017
1044.774	25.45812
1045.135	19.36582
1045.495	19.15931
1045.856	24.01223
1046.216	8.58278
1046.577	9.3422
1046.937	7.80195
1047.298	30.72474
