Data from 1015water_Reflection__10__16-51-38-480.txt Node

Date: Wed Oct 15 16:51:38 AST 2025
User: lin
Spectrometer: SR600411
Trigger mode: 0
Integration Time (sec): 5.819800E-2
Scans to average: 5
Nonlinearity correction enabled: true
Boxcar width: 0
Storing dark spectrum: false
XAxis mode: Wavelengths
Number of Pixels in Spectrum: 2048
>>>>>Begin Spectral Data<<<<<
187.982	54.56533
188.456	64.93241
188.93	48.99932
189.403	54.5556
189.877	53.49695
190.351	66.99391
190.825	53.39124
191.298	69.11074
191.772	58.98434
192.246	57.13231
192.719	71.55545
193.193	45.8028
193.666	81.5426
194.139	41.251
194.613	49.33537
195.086	54.62487
195.559	62.48438
196.033	54.65986
196.506	65.27296
196.979	60.32558
197.452	61.98759
197.925	62.96404
198.398	60.98115
198.871	62.19951
199.344	57.4845
199.816	55.73563
200.289	64.80696
200.762	62.82139
201.235	44.11747
201.707	61.4245
202.18	55.704
202.652	48.06662
203.125	57.37782
203.597	62.72546
204.07	61.53236
204.542	53.75426
205.014	66.66005
205.486	57.3592
205.959	51.64815
206.431	45.67558
206.903	62.81328
207.375	54.06129
207.847	44.05913
208.319	63.96778
208.791	56.0609
209.263	73.41466
209.734	49.14669
210.206	67.49477
210.678	51.99504
211.15	85.71207
211.621	31.99568
212.093	45.96163
212.564	51.71839
213.036	38.06184
213.507	90.38282
213.979	61.18771
214.45	51.93159
214.921	58.98613
215.392	57.28701
215.864	30.76428
216.335	74.54131
216.806	66.66336
217.277	73.01094
217.748	54.02614
218.219	57.7109
218.69	34.40868
219.161	85.86735
219.631	57.8883
220.102	69.56135
220.573	55.39815
221.043	66.92355
221.514	71.90654
221.985	87.1413
222.455	52.80018
222.926	77.64413
223.396	50.92057
223.866	48.3546
224.337	70.75036
224.807	35.24037
225.277	65.55152
225.747	38.29346
226.217	56.13478
226.687	61.23423
227.157	63.40897
227.627	55.14038
228.097	36.97955
228.567	64.59663
229.037	48.20873
229.507	60.74259
229.977	48.24466
230.446	46.55841
230.916	72.21792
231.386	49.47972
231.855	64.85984
232.325	59.37193
232.794	60.70898
233.263	63.3278
233.733	86.56562
234.202	51.01554
234.671	70.90458
235.14	78.47836
235.61	55.54938
236.079	68.41698
236.548	41.03834
237.017	63.20265
237.486	65.99555
237.955	81.81688
238.424	57.52716
238.892	13.57836
239.361	51.37074
239.83	36.77759
240.299	59.17897
240.767	101.35155
241.236	46.45042
241.704	56.95818
242.173	83.33118
242.641	75.21706
243.109	65.32996
243.578	40.41879
244.046	81.10837
244.514	44.52497
244.982	69.43989
245.451	78.84271
245.919	61.89984
246.387	68.84726
246.855	66.03302
247.323	52.21776
247.791	44.43871
248.258	91.46214
248.726	31.14235
249.194	78.47836
249.662	51.18631
250.129	50.90363
250.597	45.61123
251.064	88.31011
251.532	59.99547
251.999	65.37994
252.467	110.97759
252.934	49.23587
253.401	117.64986
253.869	37.58779
254.336	50.90363
254.803	29.122
255.27	41.95887
255.737	48.43432
256.204	78.89548
256.671	23.33014
257.138	37.49702
257.605	67.30315
258.072	22.21852
258.539	49.40755
259.005	59.3704
259.472	28.03309
259.939	58.09016
260.405	97.22184
260.872	50.49004
261.338	54.89945
261.805	49.99464
262.271	52.09494
262.737	45.3446
263.203	76.26907
263.67	49.20322
264.136	38.03917
264.602	44.06202
265.068	95.16072
265.534	81.99707
266	36.20157
266.466	37.77358
266.932	42.8534
267.398	76.06415
267.864	67.67247
268.329	47.95433
268.795	36.35909
269.261	82.35
269.726	43.68429
270.192	27.02413
270.657	60.43524
271.123	58.06002
271.588	48.05562
272.053	80.55331
272.519	51.68906
272.984	41.66088
273.449	68.96059
273.914	39.55612
274.379	54.71176
274.844	32.40271
275.309	82.04786
275.774	61.53418
276.239	75.57824
276.704	48.73359
277.169	105.49555
277.634	27.5816
278.098	58.81944
278.563	75.33977
279.028	-17.8548
279.492	51.1938
279.957	6.94352
280.421	69.66702
280.886	3.89553
281.35	56.85778
281.814	50.61326
282.279	116.4587
282.743	40.95987
283.207	61.42528
283.671	71.997
284.135	36.35858
284.599	76.91987
285.063	101.81838
285.527	78.84271
285.991	63.55389
286.455	72.93784
286.919	26.71247
287.382	73.90952
287.846	98.64845
288.31	22.49585
288.773	79.36303
289.237	45.25848
289.7	78.17995
290.164	68.54308
290.627	61.90083
291.09	68.74659
291.554	67.99568
292.017	48.14414
292.48	50.90363
292.943	35.06145
293.406	25.23886
293.869	82.69083
294.332	70.96394
294.795	63.7737
295.258	91.02438
295.721	71.73358
296.184	64.94407
296.646	49.13217
297.109	49.01455
297.572	69.31446
298.034	83.33118
298.497	51.55933
298.959	74.28173
299.422	47.99628
299.884	43.83205
300.346	5.35658
300.809	98.78029
301.271	69.50874
301.733	62.03198
302.195	72.08959
302.657	60.77949
303.119	73.55986
303.581	96.96931
304.043	38.13006
304.505	33.89568
304.967	38.45848
305.429	10.11075
305.891	57.13877
306.352	35.89209
306.814	119.1814
307.275	78.64872
307.737	60.63384
308.198	62.76737
308.66	86.27211
309.121	77.31621
309.583	98.07673
310.044	59.51778
310.505	53.75885
310.966	67.04159
311.428	64.55337
311.889	47.51975
312.35	77.58421
312.811	63.37701
313.272	61.53358
313.733	36.99537
314.193	-689.08089
314.654	111.11288
315.115	49.3787
315.576	13.85899
316.036	88.70844
316.497	68.74863
316.957	-3.70329
317.418	-16.36156
317.878	15.27593
318.339	87.65258
318.799	73.60834
319.259	76.23399
319.72	69.99583
320.18	113.48585
320.64	47.11024
321.1	55.94827
321.56	38.88549
322.02	46.33741
322.48	72.21864
322.94	35.18274
323.4	77.02443
323.86	77.60963
324.319	57.99516
324.779	77.62896
325.239	68.49002
325.698	70.703
326.158	91.14863
326.617	50.51066
327.077	48.27155
327.536	38.36806
327.996	22.22068
328.455	21.64622
328.914	65.75016
329.373	36.35909
329.832	43.89843
330.292	90.38372
330.751	68.74659
331.21	51.99505
331.668	61.17246
332.127	54.0187
332.586	60.66994
333.045	59.3704
333.504	59.83025
333.962	28.06789
334.421	68.7459
334.88	76.9217
335.338	3.88273
335.797	47.8838
336.255	62.11813
336.714	38.45665
337.172	68.67115
337.63	53.18684
338.088	105.00083
338.547	88.40439
339.005	87.65258
339.463	81.64814
339.921	51.54159
340.379	60.41211
340.837	56.66228
341.295	32.98543
341.753	-12.06741
342.21	56.43071
342.668	38.53714
343.126	44.56071
343.584	85.71224
344.041	56.35827
344.499	136.11813
344.956	81.24855
345.414	56.54465
345.871	78.94549
346.328	70.5311
346.786	25.73874
347.243	83.09661
347.7	3.84558
348.157	71.42318
348.614	51.132
349.071	12.19338
349.528	43.39105
349.985	58.58109
350.442	36.278
350.899	44.18184
351.356	71.18163
351.812	41.85631
352.269	72.3654
352.726	103.07733
353.182	42.10158
353.639	88.46049
354.095	43.58403
354.552	66.06644
355.008	49.13218
355.465	53.26574
355.921	43.20593
356.377	57.40217
356.833	72.37679
357.289	77.5664
357.745	65.08956
358.201	44.99411
358.657	55.6775
359.113	56.29671
359.569	68.93726
360.025	51.32183
360.481	78.09168
360.937	53.79273
361.392	52.01455
361.848	43.0149
362.303	49.36707
362.759	57.69827
363.214	54.82805
363.67	61.1275
364.125	43.34692
364.581	50.36275
365.036	48.68557
365.491	64.48024
365.946	66.43791
366.401	55.60263
366.856	58.47272
367.311	51.24955
367.766	63.49054
368.221	59.44006
368.676	59.76283
369.131	55.54995
369.586	57.55642
370.041	44.91145
370.495	58.06089
370.95	54.35248
371.404	50.98411
371.859	55.57409
372.313	54.29079
372.768	55.53673
373.222	53.03839
373.676	51.30649
374.131	60.50201
374.585	57.334
375.039	56.34262
375.493	58.2197
375.947	53.98692
376.401	53.54917
376.855	54.90344
377.309	58.52265
377.763	58.18795
378.217	57.00827
378.67	54.78294
379.124	58.38373
379.578	54.52588
380.031	55.24661
380.485	55.29695
380.938	56.56905
381.392	53.08169
381.845	56.8073
382.299	56.47548
382.752	55.80196
383.205	55.17766
383.658	54.67292
384.111	56.02293
384.564	55.3744
385.018	56.77867
385.471	55.88441
385.923	56.21359
386.376	54.7437
386.829	56.3316
387.282	55.57701
387.735	56.53622
388.187	55.57249
388.64	56.25109
389.093	55.80502
389.545	56.40461
389.998	55.49355
390.45	56.63665
390.902	56.74703
391.355	55.8753
391.807	56.38872
392.259	56.02042
392.711	55.83565
393.163	57.15685
393.615	56.53167
394.068	56.49505
394.519	56.65315
394.971	56.26551
395.423	56.45174
395.875	56.00614
396.327	56.45849
396.779	55.94108
397.23	55.23267
397.682	56.04242
398.133	55.89216
398.585	56.16582
399.036	56.47331
399.488	55.29315
399.939	55.41685
400.39	55.54306
400.842	56.22097
401.293	56.16081
401.744	55.50988
402.195	55.78191
402.646	55.12023
403.097	55.05441
403.548	54.04729
403.999	54.98302
404.45	54.55085
404.9	55.0037
405.351	55.20042
405.802	54.1281
406.253	54.00215
406.703	53.88416
407.154	53.92008
407.604	54.1553
408.055	53.51921
408.505	53.61992
408.955	53.73877
409.406	53.40213
409.856	53.27006
410.306	52.66796
410.756	52.89751
411.206	52.74703
411.656	52.34259
412.106	51.85881
412.556	51.67094
413.006	52.52494
413.456	51.67746
413.905	51.29436
414.355	51.72832
414.805	51.33565
415.254	50.73131
415.704	51.29479
416.153	50.71459
416.603	50.58315
417.052	50.31571
417.502	50.1325
417.951	49.75278
418.4	49.93729
418.849	50.06016
419.298	49.461
419.748	49.83557
420.197	49.35902
420.646	49.3333
421.094	48.89537
421.543	49.90518
421.992	49.27154
422.441	48.99576
422.89	48.67557
423.338	48.66751
423.787	48.14967
424.236	48.08332
424.684	48.3728
425.133	47.86013
425.581	48.07443
426.029	47.67333
426.478	47.92847
426.926	47.83286
427.374	48.00553
427.822	48.20567
428.27	47.2638
428.718	46.99956
429.166	46.94117
429.614	47.39101
430.062	47.48217
430.51	46.92155
430.958	47.02271
431.406	46.48317
431.853	46.50624
432.301	46.2536
432.749	46.14833
433.196	46.35266
433.644	45.97307
434.091	46.13832
434.538	46.03279
434.986	46.49254
435.433	45.92633
435.88	45.85534
436.327	46.45652
436.775	45.97279
437.222	46.06727
437.669	45.67958
438.116	45.69229
438.563	45.78457
439.009	45.65961
439.456	45.64677
439.903	45.99628
440.35	45.54442
440.796	45.7285
441.243	45.38907
441.689	45.43622
442.136	45.50039
442.582	45.22605
443.029	45.46285
443.475	45.42299
443.921	45.16376
444.368	44.9325
444.814	45.43853
445.26	45.37666
445.706	45.73136
446.152	45.59174
446.598	45.6349
447.044	45.50994
447.49	45.80794
447.936	45.51633
448.381	45.21173
448.827	45.65329
449.273	45.63027
449.718	45.97979
450.164	45.7066
450.61	45.42376
451.055	45.74935
451.5	45.78219
451.946	45.70338
452.391	45.81138
452.836	46.09484
453.282	45.66206
453.727	45.67557
454.172	45.9065
454.617	46.39729
455.062	45.65311
455.507	45.91439
455.952	46.16439
456.396	46.20601
456.841	46.07416
457.286	46.41623
457.731	46.73081
458.175	46.19035
458.62	46.35872
459.064	46.4967
459.509	46.44102
459.953	46.46149
460.398	47.14045
460.842	46.84023
461.286	47.20187
461.73	47.27454
462.174	46.94438
462.619	47.23779
463.063	47.28147
463.507	47.55555
463.951	47.79184
464.394	47.95129
464.838	48.15319
465.282	48.04435
465.726	47.91624
466.17	48.00693
466.613	48.18983
467.057	48.32723
467.5	48.16737
467.944	48.46169
468.387	48.89138
468.831	48.94395
469.274	49.35473
469.717	49.81594
470.16	49.87741
470.603	49.64501
471.047	50.40159
471.49	50.50638
471.933	50.67202
472.376	50.97209
472.818	51.27015
473.261	51.39728
473.704	51.54854
474.147	51.67394
474.59	51.62059
475.032	51.76425
475.475	51.88257
475.917	51.83285
476.36	52.48832
476.802	52.50158
477.245	52.75254
477.687	52.94355
478.129	53.17312
478.571	53.33428
479.013	53.57489
479.456	53.59554
479.898	53.87622
480.34	54.29364
480.782	53.74462
481.224	54.18685
481.665	54.23975
482.107	54.38941
482.549	54.33288
482.991	54.43568
483.432	54.09776
483.874	54.66126
484.315	54.95415
484.757	55.02903
485.198	55.34589
485.64	55.20198
486.081	55.92614
486.522	55.81977
486.963	55.78103
487.405	55.63436
487.846	56.11036
488.287	56.15069
488.728	56.13336
489.169	55.94561
489.61	56.58716
490.05	56.32741
490.491	56.27532
490.932	56.39101
491.373	56.5873
491.813	56.84916
492.254	56.87974
492.694	56.58595
493.135	56.48273
493.575	56.91181
494.016	56.85391
494.456	57.37931
494.896	57.22062
495.336	57.92792
495.777	57.45712
496.217	57.63137
496.657	58.19914
497.097	58.27659
497.537	58.46722
497.977	58.16907
498.416	58.58547
498.856	58.13128
499.296	57.84368
499.736	58.30739
500.175	57.6145
500.615	58.82603
501.054	58.95698
501.494	58.67613
501.933	58.65848
502.373	59.27406
502.812	59.28691
503.251	59.63374
503.69	59.07768
504.129	59.94336
504.569	59.76373
505.008	59.95947
505.447	60.1856
505.886	60.1156
506.324	60.60021
506.763	60.60687
507.202	61.07593
507.641	61.05836
508.079	61.33127
508.518	61.98457
508.957	61.65143
509.395	62.00182
509.834	62.39961
510.272	62.83793
510.71	63.01374
511.149	63.47925
511.587	63.43745
512.025	63.67424
512.463	63.8929
512.901	63.87091
513.339	64.6386
513.777	64.38964
514.215	64.23671
514.653	64.88069
515.091	65.237
515.529	65.51069
515.966	65.71352
516.404	65.94496
516.842	65.96501
517.279	66.33351
517.717	66.61356
518.154	66.40368
518.592	66.89239
519.029	66.84075
519.466	66.76641
519.904	67.1273
520.341	67.3973
520.778	68.10683
521.215	67.97528
521.652	68.64895
522.089	68.62965
522.526	68.75525
522.963	68.78042
523.399	69.60883
523.836	69.80504
524.273	69.87727
524.71	70.7051
525.146	70.74698
525.583	71.30931
526.019	70.47265
526.456	70.70818
526.892	71.31397
527.328	71.3994
527.765	71.63885
528.201	71.89022
528.637	72.30837
529.073	72.25325
529.509	72.34652
529.945	73.04605
530.381	73.38041
530.817	72.42152
531.253	72.85481
531.689	73.59202
532.124	73.42265
532.56	73.68755
532.996	73.52766
533.431	73.65915
533.867	73.82815
534.302	74.15465
534.738	74.61168
535.173	74.57399
535.608	75.08134
536.044	74.74256
536.479	74.55044
536.914	75.16593
537.349	75.57425
537.784	74.77455
538.219	75.65748
538.654	75.62884
539.089	75.47511
539.524	74.95237
539.959	75.30961
540.393	75.51253
540.828	76.15194
541.263	75.91219
541.697	76.24369
542.132	76.25469
542.566	76.31387
543.001	75.79634
543.435	75.89745
543.869	76.37258
544.303	76.39998
544.738	76.20295
545.172	76.06341
545.606	76.39948
546.04	76.06801
546.474	76.42567
546.908	75.96939
547.342	75.69661
547.775	76.39177
548.209	76.4327
548.643	75.35495
549.077	77.06602
549.51	76.03538
549.944	76.38925
550.377	75.75705
550.811	75.456
551.244	75.35566
551.677	75.15457
552.111	75.21296
552.544	74.84332
552.977	75.55983
553.41	75.35817
553.843	74.88191
554.276	74.64128
554.709	74.43588
555.142	74.48444
555.575	74.29138
556.008	74.17914
556.44	73.3186
556.873	73.74217
557.306	72.80393
557.738	73.05805
558.171	72.93591
558.603	72.95449
559.036	72.81483
559.468	72.10515
559.9	72.74308
560.333	72.17477
560.765	71.40915
561.197	70.97464
561.629	71.33758
562.061	70.98286
562.493	70.4336
562.925	70.33591
563.357	69.8505
563.789	69.83715
564.22	69.49686
564.652	69.27128
565.084	69.87719
565.515	69.4574
565.947	68.35897
566.378	68.61231
566.81	68.18046
567.241	68.05965
567.672	68.02046
568.104	67.70339
568.535	67.15569
568.966	67.12054
569.397	66.89558
569.828	66.56584
570.259	66.68264
570.69	65.79712
571.121	65.91408
571.552	65.64166
571.983	65.15873
572.414	65.16544
572.844	65.06684
573.275	64.60329
573.705	64.54181
574.136	64.28675
574.566	64.21886
574.997	63.92412
575.427	63.6926
575.857	63.51446
576.288	63.72411
576.718	62.93744
577.148	63.03989
577.578	62.41298
578.008	62.58876
578.438	62.35217
578.868	61.68909
579.298	61.71011
579.728	61.19199
580.157	60.57313
580.587	59.97495
581.017	59.94113
581.446	59.79547
581.876	59.97724
582.305	59.20927
582.735	58.8481
583.164	58.86739
583.593	58.23554
584.023	58.34675
584.452	58.56156
584.881	58.10453
585.31	57.62406
585.739	57.54228
586.168	57.47281
586.597	57.32625
587.026	57.24565
587.455	57.33205
587.884	57.4
588.312	57.03693
588.741	56.91086
589.17	56.49766
589.598	56.70671
590.027	55.83463
590.455	55.76661
590.884	55.63416
591.312	55.60893
591.74	55.66036
592.168	55.30153
592.597	54.7748
593.025	54.58771
593.453	54.57331
593.881	54.17061
594.309	53.58333
594.737	53.14648
595.165	53.67031
595.592	53.11588
596.02	53.082
596.448	52.77341
596.875	52.50663
597.303	52.56279
597.73	52.19067
598.158	51.9694
598.585	51.86446
599.013	51.52136
599.44	51.46413
599.867	51.54062
600.294	51.33888
600.722	51.36441
601.149	51.54379
601.576	51.001
602.003	51.53424
602.43	51.60531
602.856	50.91692
603.283	51.03281
603.71	50.66517
604.137	50.73032
604.563	50.30755
604.99	50.11564
605.416	49.98212
605.843	49.4286
606.269	49.26011
606.696	49.12878
607.122	49.11276
607.548	49.25037
607.975	49.62576
608.401	49.58188
608.827	49.4866
609.253	49.0166
609.679	48.74351
610.105	48.50293
610.531	48.44627
610.956	48.3948
611.382	48.09327
611.808	48.33196
612.234	48.26396
612.659	48.20491
613.085	48.37279
613.51	48.26298
613.936	47.9025
614.361	47.6077
614.786	47.59812
615.212	47.32282
615.637	47.58173
616.062	47.33115
616.487	46.81873
616.912	47.67759
617.337	47.17764
617.762	47.58857
618.187	46.98852
618.612	47.06876
619.037	46.91657
619.461	47.18774
619.886	46.88392
620.311	47.01038
620.735	46.68611
621.16	46.713
621.584	46.76935
622.008	46.65807
622.433	46.70935
622.857	47.01917
623.281	46.973
623.705	46.59071
624.13	46.66149
624.554	46.30781
624.978	46.7118
625.402	46.66623
625.826	46.42806
626.249	46.26448
626.673	46.21122
627.097	46.41887
627.521	46.31543
627.944	46.4751
628.368	46.48322
628.791	46.19024
629.215	46.79364
629.638	46.58168
630.061	46.83223
630.485	46.67462
630.908	46.38829
631.331	46.73693
631.754	46.79416
632.177	47.21825
632.6	46.7449
633.023	46.67671
633.446	47.04658
633.869	47.41704
634.292	47.61062
634.715	47.56422
635.137	47.58928
635.56	47.72131
635.982	48.4016
636.405	48.02389
636.827	48.22521
637.25	48.32305
637.672	48.2744
638.094	48.31621
638.517	48.34629
638.939	48.68116
639.361	48.90003
639.783	48.81881
640.205	49.13114
640.627	48.95291
641.049	49.25068
641.471	49.58688
641.893	49.42925
642.314	49.67902
642.736	49.7186
643.158	49.51868
643.579	50.40787
644.001	50.06867
644.422	49.87138
644.844	49.78204
645.265	50.1418
645.686	50.48974
646.107	50.27457
646.529	50.77046
646.95	50.95167
647.371	50.96321
647.792	50.65705
648.213	50.89093
648.634	51.48408
649.055	51.53902
649.475	51.79123
649.896	51.44447
650.317	51.75937
650.737	52.24372
651.158	52.30436
651.578	53.22183
651.999	52.82615
652.419	52.58144
652.84	53.36827
653.26	53.09547
653.68	54.29754
654.1	53.64838
654.521	53.77081
654.941	53.53297
655.361	54.27828
655.781	54.64155
656.2	54.93806
656.62	55.07053
657.04	55.40669
657.46	55.07921
657.879	55.25078
658.299	55.66149
658.719	55.79276
659.138	55.84769
659.558	56.3393
659.977	55.76455
660.396	56.59717
660.816	56.40763
661.235	56.44833
661.654	56.40825
662.073	57.41835
662.492	57.42793
662.911	57.35358
663.33	57.81204
663.749	57.47537
664.168	57.85061
664.587	57.88093
665.006	57.96327
665.424	58.46224
665.843	58.5209
666.261	58.8278
666.68	58.87323
667.098	59.17344
667.517	59.17811
667.935	58.73181
668.353	59.18082
668.772	58.81386
669.19	59.7936
669.608	59.8272
670.026	59.74573
670.444	59.631
670.862	59.6825
671.28	59.51297
671.698	59.39774
672.115	60.21775
672.533	59.87782
672.951	59.77909
673.368	60.26087
673.786	59.66737
674.203	60.53593
674.621	59.60629
675.038	59.89581
675.456	60.53669
675.873	59.84092
676.29	60.06871
676.707	59.67397
677.124	59.57044
677.541	59.72993
677.958	59.51913
678.375	59.92694
678.792	59.56957
679.209	59.23103
679.626	59.45874
680.043	59.88215
680.459	60.14842
680.876	59.88403
681.292	59.43681
681.709	59.86709
682.125	59.54128
682.542	59.20352
682.958	58.51056
683.374	59.37554
683.79	58.79774
684.207	59.13042
684.623	59.04201
685.039	59.4518
685.455	58.77205
685.871	58.89765
686.286	58.79585
686.702	58.29829
687.118	58.4288
687.534	58.23525
687.949	58.30175
688.365	58.55219
688.781	58.12331
689.196	57.73727
689.611	57.19288
690.027	57.6576
690.442	57.57394
690.857	57.56567
691.273	56.64215
691.688	56.87499
692.103	56.72782
692.518	56.72415
692.933	56.37839
693.348	55.66116
693.763	56.26176
694.177	55.15566
694.592	55.43484
695.007	55.16689
695.421	55.53369
695.836	54.90826
696.25	54.62659
696.665	54.03827
697.079	54.17331
697.494	54.15923
697.908	53.26996
698.322	53.67436
698.736	52.99014
699.151	53.46136
699.565	52.52417
699.979	52.75358
700.393	51.79454
700.806	51.74436
701.22	51.93694
701.634	51.56704
702.048	51.95199
702.461	51.04945
702.875	51.16854
703.289	50.72788
703.702	50.39376
704.116	50.01872
704.529	50.09412
704.942	49.78033
705.356	49.6273
705.769	48.88904
706.182	48.27818
706.595	48.22442
707.008	47.8879
707.421	47.86288
707.834	47.74449
708.247	46.87802
708.66	46.90285
709.072	47.07974
709.485	46.32409
709.898	46.24753
710.31	45.92329
710.723	46.09344
711.135	45.11084
711.548	45.12624
711.96	44.26726
712.373	44.17539
712.785	43.84897
713.197	44.14317
713.609	43.05351
714.021	43.40801
714.433	42.94766
714.845	42.77229
715.257	42.11164
715.669	42.10757
716.081	41.41011
716.493	41.4867
716.904	41.13329
717.316	40.84356
717.727	40.7605
718.139	40.39446
718.55	39.66694
718.962	39.95637
719.373	39.26215
719.784	39.3695
720.196	39.48123
720.607	39.31028
721.018	39.0328
721.429	38.38659
721.84	38.53875
722.251	37.89443
722.662	37.87301
723.073	37.86922
723.483	37.51822
723.894	36.32835
724.305	36.55637
724.715	36.44505
725.126	36.50014
725.536	35.62208
725.947	35.66713
726.357	35.22908
726.768	35.44064
727.178	35.14859
727.588	34.99316
727.998	34.98399
728.408	34.57922
728.818	34.43819
729.228	33.88209
729.638	33.69373
730.048	33.51224
730.458	33.39409
730.868	33.37781
731.277	33.41986
731.687	32.85151
732.097	32.86714
732.506	32.64013
732.916	32.32265
733.325	32.1393
733.734	32.04193
734.144	31.5317
734.553	31.70587
734.962	30.94307
735.371	31.26705
735.78	30.73193
736.189	31.10429
736.598	30.94557
737.007	30.75252
737.416	29.83817
737.825	30.36702
738.233	29.80502
738.642	30.05095
739.051	29.56635
739.459	29.75501
739.868	29.5276
740.276	29.5834
740.684	29.44408
741.093	28.96629
741.501	29.05408
741.909	28.50158
742.317	28.81095
742.725	28.17011
743.133	28.26848
743.541	27.98267
743.949	28.42202
744.357	27.84203
744.765	27.91183
745.173	27.55842
745.58	28.08772
745.988	26.97937
746.396	27.67129
746.803	26.93161
747.211	27.20375
747.618	26.78214
748.025	26.5922
748.433	26.85681
748.84	26.38188
749.247	26.7163
749.654	26.42924
750.061	26.56756
750.468	26.3029
750.875	26.8481
751.282	26.06837
751.689	26.50736
752.096	25.79843
752.502	26.2663
752.909	26.15427
753.316	25.72556
753.722	25.79615
754.129	25.72522
754.535	26.0128
754.941	25.26363
755.348	25.7111
755.754	25.21498
756.16	25.66736
756.566	25.32819
756.972	25.39501
757.378	25.16229
757.784	25.13649
758.19	25.58917
758.596	24.9995
759.002	24.93651
759.408	24.83457
759.813	25.2122
760.219	24.58731
760.624	24.64551
761.03	24.85935
761.435	24.74698
761.841	24.5315
762.246	24.15516
762.651	24.49251
763.057	23.86679
763.462	24.58734
763.867	24.05668
764.272	24.96056
764.677	24.4829
765.082	24.7634
765.487	24.75016
765.892	24.2882
766.296	24.53004
766.701	24.22325
767.106	24.72385
767.51	24.14843
767.915	24.57144
768.319	24.28983
768.724	24.23971
769.128	24.29875
769.532	23.72102
769.936	24.29366
770.341	23.52787
770.745	23.74923
771.149	23.33404
771.553	23.68794
771.957	23.76673
772.361	22.95937
772.764	23.89686
773.168	23.05216
773.572	23.43631
773.976	23.48111
774.379	23.45706
774.783	23.47608
775.186	23.19465
775.59	23.69697
775.993	23.00068
776.396	23.67523
776.8	22.92808
777.203	23.63398
777.606	23.32694
778.009	22.72639
778.412	23.62222
778.815	22.566
779.218	23.46323
779.621	23.18019
780.023	23.79099
780.426	23.5715
780.829	23.88537
781.231	23.86845
781.634	23.04668
782.036	23.79992
782.439	23.49469
782.841	23.3802
783.244	23.6915
783.646	23.00627
784.048	23.55416
784.45	23.59713
784.852	23.08866
785.254	23.03663
785.656	22.93749
786.058	23.5383
786.46	23.05536
786.862	23.10911
787.264	22.72947
787.665	23.03745
788.067	23.48544
788.468	22.86938
788.87	23.47699
789.271	22.3273
789.673	23.19785
790.074	23.05158
790.475	22.89105
790.877	23.29739
791.278	23.02086
791.679	23.46489
792.08	23.24146
792.481	23.50403
792.882	23.57462
793.283	22.81847
793.683	22.94067
794.084	23.16881
794.485	22.95986
794.886	23.21808
795.286	22.81841
795.687	23.17956
796.087	22.73738
796.487	22.84197
796.888	23.27054
797.288	22.87451
797.688	22.85727
798.088	22.92988
798.489	23.19013
798.889	23.14467
799.289	22.75998
799.689	23.09972
800.088	22.77581
800.488	22.89996
800.888	22.9396
801.288	23.14754
801.687	23.32625
802.087	23.19227
802.486	23.43116
802.886	23.65868
803.285	23.17194
803.685	23.67827
804.084	23.39811
804.483	24.12714
804.882	24.6311
805.281	23.35221
805.68	23.98673
806.079	24.10201
806.478	23.49866
806.877	24.03649
807.276	23.11226
807.675	23.97248
808.074	23.74624
808.472	23.45252
808.871	24.21483
809.269	23.9029
809.668	23.82618
810.066	24.25077
810.465	24.05576
810.863	24.12788
811.261	24.2545
811.659	24.21721
812.057	23.73051
812.455	24.10557
812.853	24.68529
813.251	23.84871
813.649	23.47389
814.047	24.67621
814.445	23.90876
814.843	24.22274
815.24	23.87279
815.638	23.56538
816.035	24.45145
816.433	23.90824
816.83	23.97129
817.228	24.32421
817.625	23.71168
818.022	23.96004
818.419	23.77287
818.816	23.66619
819.213	24.23377
819.61	23.8093
820.007	24.42515
820.404	24.68625
820.801	24.16302
821.198	25.13439
821.595	24.78119
821.991	24.67177
822.388	25.40804
822.784	24.98931
823.181	25.3314
823.577	25.68003
823.974	25.0892
824.37	25.4209
824.766	25.36657
825.162	24.9671
825.558	25.34451
825.954	24.69251
826.35	24.74972
826.746	25.5756
827.142	25.00689
827.538	25.72619
827.934	25.53155
828.33	25.34272
828.725	25.39257
829.121	25.17323
829.516	25.11249
829.912	24.8007
830.307	24.40003
830.703	24.89691
831.098	24.85143
831.493	24.90539
831.888	25.02827
832.283	24.72996
832.678	24.61768
833.073	25.45867
833.468	25.01581
833.863	25.47253
834.258	25.40939
834.653	25.02492
835.048	25.73671
835.442	25.4006
835.837	24.86806
836.231	25.39345
836.626	25.52301
837.02	25.35328
837.415	25.99009
837.809	25.55895
838.203	25.47413
838.597	25.1968
838.991	24.54804
839.385	25.09242
839.779	25.56531
840.173	25.20431
840.567	25.27264
840.961	26.12185
841.355	24.90281
841.748	26.02189
842.142	26.00224
842.536	25.51878
842.929	25.58535
843.323	25.52019
843.716	26.07495
844.109	25.74927
844.503	25.20295
844.896	25.16345
845.289	25.95285
845.682	25.77394
846.075	25.97853
846.468	25.96711
846.861	25.5148
847.254	25.69105
847.647	26.15477
848.04	25.30699
848.432	26.01394
848.825	25.80242
849.217	25.25932
849.61	26.20086
850.002	25.90099
850.395	26.12114
850.787	25.76503
851.179	25.90286
851.572	26.02964
851.964	26.15606
852.356	25.61044
852.748	25.23133
853.14	26.46315
853.532	25.07245
853.924	26.17266
854.315	26.07378
854.707	26.55469
855.099	26.74146
855.491	26.2653
855.882	25.21845
856.274	26.32535
856.665	25.59499
857.056	25.76925
857.448	25.6636
857.839	25.44367
858.23	25.53492
858.621	25.30813
859.012	25.52698
859.403	25.47672
859.794	25.93271
860.185	27.11815
860.576	26.24443
860.967	26.03287
861.358	26.4722
861.748	25.44198
862.139	25.44338
862.529	25.97793
862.92	24.88957
863.31	25.10787
863.701	25.58765
864.091	25.49852
864.481	25.63366
864.872	25.87468
865.262	25.26382
865.652	26.57671
866.042	26.50365
866.432	24.63624
866.822	26.69257
867.211	25.41204
867.601	25.33631
867.991	25.99715
868.381	25.71304
868.77	25.08679
869.16	25.67803
869.549	25.54075
869.939	24.62241
870.328	25.47373
870.717	24.84016
871.106	25.37348
871.496	25.37638
871.885	24.88132
872.274	24.79349
872.663	25.56527
873.052	25.63322
873.441	24.69444
873.829	25.37749
874.218	25.78295
874.607	24.66813
874.996	26.16127
875.384	25.53288
875.773	24.72122
876.161	25.26434
876.549	25.48718
876.938	25.26924
877.326	25.07926
877.714	25.68288
878.102	25.0978
878.491	24.87228
878.879	25.45511
879.267	25.03764
879.655	24.87768
880.042	25.79258
880.43	25.25341
880.818	25.01999
881.206	25.77159
881.593	25.4332
881.981	25.04887
882.368	25.81119
882.756	25.90906
883.143	25.45432
883.53	25.46232
883.918	25.88512
884.305	25.50942
884.692	25.29675
885.079	25.76414
885.466	24.91164
885.853	24.90921
886.24	25.75352
886.627	25.2885
887.014	24.81673
887.4	25.58321
887.787	24.98105
888.174	25.02456
888.56	25.38155
888.947	25.03488
889.333	24.88238
889.719	25.62279
890.106	25.10628
890.492	24.83373
890.878	24.63418
891.264	24.8978
891.65	25.14383
892.036	24.74137
892.422	24.86662
892.808	24.37864
893.194	24.52944
893.58	24.83416
893.965	24.69768
894.351	24.21912
894.736	24.84634
895.122	24.99089
895.507	24.33145
895.893	24.31229
896.278	24.88631
896.663	24.17506
897.049	24.46344
897.434	25.12758
897.819	24.87155
898.204	24.81873
898.589	24.90988
898.974	24.68194
899.359	24.58764
899.743	25.07278
900.128	24.94998
900.513	24.55306
900.897	24.92206
901.282	25.06557
901.667	24.75441
902.051	23.83147
902.435	24.92335
902.82	24.14276
903.204	24.12471
903.588	24.48607
903.972	24.70244
904.356	24.98398
904.74	24.24735
905.124	24.70403
905.508	24.799
905.892	24.85462
906.276	24.95923
906.659	25.07534
907.043	24.69306
907.427	24.70211
907.81	25.2089
908.194	24.9577
908.577	24.4142
908.96	25.07928
909.344	24.11349
909.727	23.98039
910.11	25.22483
910.493	23.89151
910.876	23.72758
911.259	24.11978
911.642	24.39637
912.025	23.75511
912.408	23.68823
912.79	24.06443
913.173	23.84598
913.556	23.28573
913.938	23.99969
914.321	23.74624
914.703	22.70451
915.086	23.38004
915.468	23.91597
915.85	23.34642
916.232	23.12453
916.614	23.58412
916.996	23.8737
917.378	23.45885
917.76	23.99699
918.142	23.73292
918.524	24.53347
918.906	24.62543
919.288	25.40174
919.669	24.11853
920.051	24.41766
920.432	24.1668
920.814	24.36083
921.195	25.23905
921.577	23.33766
921.958	24.59491
922.339	25.00388
922.72	24.44443
923.101	24.86476
923.482	25.20884
923.863	24.55248
924.244	23.95559
924.625	23.81616
925.006	24.56972
925.387	24.39391
925.767	24.92007
926.148	24.49666
926.528	24.64941
926.909	22.95924
927.289	24.04538
927.67	24.73029
928.05	23.41377
928.43	24.18328
928.81	24.2484
929.191	24.24984
929.571	24.65718
929.951	24.21453
930.331	23.88669
930.71	23.70446
931.09	23.10616
931.47	24.63477
931.85	23.38602
932.229	25.05123
932.609	23.95743
932.988	24.07034
933.368	23.24741
933.747	23.76268
934.127	24.71227
934.506	24.10009
934.885	23.95913
935.264	24.03501
935.643	23.84797
936.022	24.1352
936.401	24.73723
936.78	24.23738
937.159	23.83689
937.538	23.47648
937.916	22.62004
938.295	24.06536
938.674	23.33637
939.052	22.3917
939.431	25.13009
939.809	24.17339
940.187	24.29022
940.566	22.63092
940.944	24.43272
941.322	24.9342
941.7	23.43496
942.078	24.25008
942.456	23.46232
942.834	23.49592
943.212	23.84102
943.59	23.60723
943.968	23.04813
944.345	23.20322
944.723	23.43506
945.1	24.97738
945.478	23.44963
945.855	23.85098
946.233	22.23838
946.61	23.58776
946.987	24.61632
947.365	24.15765
947.742	22.89609
948.119	22.74561
948.496	21.80663
948.873	23.68122
949.25	24.44146
949.626	22.84664
950.003	23.2502
950.38	22.76416
950.756	23.68676
951.133	25.43596
951.51	23.08194
951.886	24.11001
952.262	23.0452
952.639	23.32102
953.015	23.92168
953.391	24.48158
953.767	24.63792
954.143	23.85352
954.519	23.16523
954.895	22.28418
955.271	24.20154
955.647	23.0357
956.023	24.0446
956.399	21.90633
956.774	24.06131
957.15	24.43232
957.525	22.78327
957.901	22.56886
958.276	23.79516
958.652	22.30967
959.027	24.35289
959.402	22.30029
959.777	21.31664
960.152	21.81791
960.527	22.19517
960.902	22.81823
961.277	20.84959
961.652	22.45624
962.027	23.33706
962.402	21.63167
962.776	21.33022
963.151	20.77245
963.525	22.46268
963.9	24.9913
964.274	22.38655
964.649	21.93563
965.023	23.88078
965.397	23.2223
965.771	20.37529
966.146	20.26464
966.52	20.96819
966.894	23.48753
967.268	22.34987
967.641	22.34378
968.015	21.29451
968.389	23.43487
968.763	22.47958
969.136	21.79405
969.51	20.83883
969.883	21.99147
970.257	22.15918
970.63	23.68047
971.003	21.93708
971.377	23.63053
971.75	21.99086
972.123	22.59372
972.496	22.26284
972.869	21.30603
973.242	22.00197
973.615	23.65358
973.988	21.80958
974.36	21.80339
974.733	21.54906
975.106	22.73504
975.478	22.95878
975.851	21.99311
976.223	19.56373
976.596	20.62811
976.968	22.47465
977.34	22.90115
977.712	21.31137
978.085	20.45108
978.457	20.45834
978.829	21.64217
979.201	21.51251
979.573	20.5776
979.944	20.54729
980.316	20.27339
980.688	20.75666
981.059	21.0269
981.431	20.41137
981.803	20.46401
982.174	20.38312
982.545	21.32597
982.917	21.32697
983.288	21.78482
983.659	20.77397
984.03	17.5352
984.401	20.74021
984.772	23.26864
985.143	22.76338
985.514	22.4253
985.885	21.50996
986.256	21.00427
986.627	20.67377
986.997	21.94695
987.368	20.63792
987.738	19.82041
988.109	23.0657
988.479	21.70554
988.85	20.21003
989.22	22.36768
989.59	20.5314
989.96	19.94495
990.33	20.78388
990.7	19.13199
991.07	21.15139
991.44	19.56461
991.81	19.31378
992.18	19.57448
992.549	20.06928
992.919	20.7252
993.289	20.29866
993.658	21.34819
994.028	20.27562
994.397	20.99997
994.766	18.94949
995.136	19.94682
995.505	19.87687
995.874	21.00186
996.243	19.3528
996.612	18.99153
996.981	22.5853
997.35	20.55183
997.719	20.92138
998.088	20.74883
998.456	20.76787
998.825	21.89245
999.194	20.89726
999.562	22.56168
999.931	20.04712
1000.299	22.08927
1000.667	20.37368
1001.036	17.56025
1001.404	24.97344
1001.772	22.5957
1002.14	20.14372
1002.508	19.27383
1002.876	23.66919
1003.244	21.58003
1003.612	21.38174
1003.98	19.78882
1004.347	22.88882
1004.715	22.74871
1005.083	22.16591
1005.45	20.6578
1005.818	21.2393
1006.185	17.5775
1006.552	21.59584
1006.92	22.95329
1007.287	16.92533
1007.654	20.95869
1008.021	15.31631
1008.388	21.20695
1008.755	22.73202
1009.122	16.35016
1009.489	23.26017
1009.856	19.58257
1010.222	21.22341
1010.589	20.22479
1010.956	20.78548
1011.322	21.26322
1011.689	21.24481
1012.055	20.13657
1012.421	19.955
1012.788	19.24521
1013.154	19.01633
1013.52	18.02693
1013.886	19.7099
1014.252	17.06744
1014.618	21.57826
1014.984	20.69867
1015.35	24.29827
1015.716	21.90134
1016.081	22.41457
1016.447	21.919
1016.813	23.78291
1017.178	26.12642
1017.544	22.80538
1017.909	22.63108
1018.274	23.9063
1018.64	24.76957
1019.005	27.2278
1019.37	18.3871
1019.735	22.46592
1020.1	22.23486
1020.465	18.80695
1020.83	24.46574
1021.195	21.73012
1021.56	19.46225
1021.924	19.02107
1022.289	12.80257
1022.654	20.12934
1023.018	29.18327
1023.383	21.53592
1023.747	23.34443
1024.111	25.79393
1024.476	18.03441
1024.84	21.73528
1025.204	21.45129
1025.568	29.14518
1025.932	21.25177
1026.296	23.74306
1026.66	20.75237
1027.024	25.28786
1027.387	21.8874
1027.751	24.54475
1028.115	21.47606
1028.478	26.40893
1028.842	24.83025
1029.205	23.30254
1029.569	16.69281
1029.932	27.06846
1030.295	14.2097
1030.659	22.15538
1031.022	22.72421
1031.385	27.57021
1031.748	23.69768
1032.111	22.37429
1032.474	28.13197
1032.836	21.23281
1033.199	36.47357
1033.562	18.5683
1033.924	25.70108
1034.287	29.90377
1034.65	30.27113
1035.012	18.19678
1035.374	22.37656
1035.737	18.64463
1036.099	17.56932
1036.461	24.2874
1036.823	24.81691
1037.185	29.24773
1037.547	21.5276
1037.909	20.04828
1038.271	25.85904
1038.633	19.32256
1038.995	32.06602
1039.356	35.12179
1039.718	18.57223
1040.08	25.32211
1040.441	25.92744
1040.803	13.20154
1041.164	15.37758
1041.525	25.07509
1041.886	13.68731
1042.248	19.65728
1042.609	38.65985
1042.97	24.63256
1043.331	32.09163
1043.692	24.89454
1044.053	17.97579
1044.413	32.27247
1044.774	26.58143
1045.135	7.32727
1045.495	30.82321
1045.856	25.97262
1046.216	27.26495
1046.577	22.42252
1046.937	20.48118
1047.298	25.2212
