Data from 1015water_Reflection__15__16-52-30-882.txt Node

Date: Wed Oct 15 16:52:30 AST 2025
User: lin
Spectrometer: SR600411
Trigger mode: 0
Integration Time (sec): 5.819800E-2
Scans to average: 5
Nonlinearity correction enabled: true
Boxcar width: 0
Storing dark spectrum: false
XAxis mode: Wavelengths
Number of Pixels in Spectrum: 2048
>>>>>Begin Spectral Data<<<<<
187.982	68.85286
188.456	65.30147
188.93	58.88113
189.403	61.34099
189.877	53.49695
190.351	64.61251
190.825	46.93962
191.298	69.11074
191.772	64.84274
192.246	69.57614
192.719	63.97139
193.193	54.66982
193.666	67.25456
194.139	52.40304
194.613	46.41337
195.086	61.49837
195.559	60.99605
196.033	62.78909
196.506	70.50846
196.979	54.90619
197.452	58.29309
197.925	62.96404
198.398	62.48143
198.871	62.19951
199.344	61.23495
199.816	50.13069
200.289	60.246
200.762	52.64369
201.235	65.57598
201.707	57.83675
202.18	58.56132
202.652	70.66452
203.125	67.03773
203.597	53.40821
204.07	49.99356
204.542	72.57329
205.014	69.99374
205.486	72.09768
205.959	41.71457
206.431	72.58106
206.903	53.83846
207.375	59.87552
207.847	61.00859
208.319	73.28566
208.791	65.88824
209.263	92.40396
209.734	51.68907
210.206	79.99619
210.678	46.99505
211.15	76.91987
211.621	46.99506
212.093	74.18884
212.564	47.40806
213.036	43.13761
213.507	102.88523
213.979	102.23941
214.45	57.35808
214.921	69.05885
215.392	51.03691
215.864	56.40454
216.335	83.63337
216.806	109.33485
217.277	68.24855
217.748	74.18883
218.219	61.73798
218.69	55.83662
219.161	106.52301
219.631	51.87311
220.102	69.56135
220.573	63.50671
221.043	44.08827
221.514	60.66994
221.985	89.99875
222.455	60.10389
222.926	64.70203
223.396	100
223.866	76.22512
224.337	67.91994
224.807	49.99394
225.277	83.33085
225.747	42.54863
226.217	94.73571
226.687	40.30391
227.157	74.79214
227.627	50.72855
228.097	53.41744
228.567	67.25169
229.037	87.49757
229.507	64.48111
229.977	58.73438
230.446	78.62158
230.916	79.62615
231.386	83.5025
231.855	57.65228
232.325	68.74727
232.794	83.03258
233.263	40.82757
233.733	77.60963
234.202	68.36314
234.671	58.1765
235.14	89.87199
235.61	41.26377
236.079	66.31157
236.548	49.24708
237.017	90.56424
237.486	92.99871
237.955	97.72708
238.424	63.69193
238.892	67.89773
239.361	71.55523
239.83	49.42097
240.299	76.52712
240.767	121.62549
241.236	37.78934
241.704	68.35104
242.173	61.5348
242.641	46.89707
243.109	75.99728
243.578	51.76606
244.046	130.00696
244.514	55.46247
244.982	73.14393
245.451	74.03449
245.919	74.28173
246.387	56.55142
246.855	70.75036
247.323	44.44003
247.791	76.06415
248.258	86.58347
248.726	53.27266
249.194	87.34004
249.662	41.66261
250.129	79.99651
250.597	50.87436
251.064	94.80444
251.532	66.31158
251.999	77.88106
252.467	108.53809
252.934	58.32696
253.401	105.88319
253.869	41.34698
254.336	59.08563
254.803	47.56772
255.27	47.31588
255.737	49.99682
256.204	85.31839
256.671	68.88506
257.138	49.99682
257.605	85.57437
258.072	25.92181
258.539	52.93697
259.005	64.57897
259.472	54.20033
259.939	72.37678
260.405	79.16431
260.872	58.41097
261.338	41.17402
261.805	26.84764
262.271	64.70048
262.737	65.1124
263.203	72.87904
263.67	80.95045
264.136	49.99543
264.602	55.92643
265.068	112.90502
265.534	71.996
266	71.54703
266.466	74.44104
266.932	88.31011
267.398	45.29339
267.864	77.77438
268.329	62.24032
268.795	48.47994
269.261	98.03883
269.726	69.89861
270.192	49.99632
270.657	65.93
271.123	72.03929
271.588	48.05562
272.053	69.44141
272.519	52.53652
272.984	42.49418
273.449	81.03094
273.914	70.3259
274.379	57.54202
274.844	45.36505
275.309	51.27625
275.774	49.44603
276.239	54.64693
276.704	52.09494
277.169	97.80181
277.634	49.99424
278.098	54.11346
278.563	101.37006
279.028	46.4258
279.492	76.79558
279.957	59.71878
280.421	66.38804
280.886	66.23035
281.35	62.74036
281.814	59.25537
282.279	101.26602
282.743	40.95987
283.207	88.57002
283.671	82.66453
284.135	37.26762
284.599	63.73209
285.063	81.81656
285.527	57.68726
285.991	58.46889
286.455	100
286.919	54.9554
287.382	49.99543
287.846	78.37589
288.31	40.82758
288.773	100
289.237	75.78601
289.7	65.45207
290.164	55.63908
290.627	82.14041
291.09	68.74659
291.554	98.9998
292.017	75.30565
292.48	59.99475
292.943	50.64553
293.406	51.4512
293.869	86.53726
294.332	95.69816
294.795	51.96221
295.258	93.58881
295.721	45.64538
296.184	90.72003
296.646	50.85631
297.109	53.91654
297.572	117.04894
298.034	76.92033
298.497	90.62392
298.959	39.995
299.422	86.66494
299.884	21.91533
300.346	60.71163
300.809	70.72834
301.271	78.04599
301.733	61.10601
302.195	56.97256
302.657	77.44744
303.119	39.07634
303.581	104.54608
304.043	51.68906
304.505	76.26907
304.967	78.45936
305.429	53.92819
305.891	91.66539
306.352	68.37104
306.814	94.5198
307.275	52.80458
307.737	89.35993
308.198	46.70856
308.66	67.64263
309.121	74.22312
309.583	76.92124
310.044	62.69256
310.505	35.47964
310.966	86.36158
311.428	45.56573
311.889	72.27321
312.35	39.65242
312.811	85.91379
313.272	41.34115
313.733	64.99548
314.193	344.41468
314.654	48.60754
315.115	50.61326
315.576	67.32232
316.036	106.45246
316.497	56.24844
316.957	42.58997
317.418	41.81552
317.878	59.71878
318.339	95.06097
318.799	56.94094
319.259	44.5495
319.72	74.99628
320.18	77.52501
320.64	71.14961
321.1	65.47242
321.56	91.66557
322.02	69.50874
322.48	54.44001
322.94	49.99732
323.4	72.97008
323.86	80.59493
324.319	68.99575
324.779	115.79223
325.239	82.18966
325.698	84.84596
326.158	70.79182
326.617	78.34725
327.077	90.80315
327.536	56.97256
327.996	91.11039
328.455	87.62678
328.914	60.2705
329.373	49.49003
329.832	92.68182
330.292	84.61404
330.751	127.50556
331.21	42.99514
331.668	70.58473
332.127	57.46704
332.586	65.16453
333.045	58.3287
333.504	41.79739
333.962	96.49085
334.421	65.6207
334.88	79.48592
335.338	52.42208
335.797	74.64522
336.255	28.78519
336.714	58.64884
337.172	95.17997
337.63	86.16799
338.088	81.24758
338.547	49.27194
339.005	118.52205
339.463	54.12307
339.921	85.56463
340.379	77.07996
340.837	52.21776
341.295	17.52299
341.753	67.23884
342.21	70.29284
342.668	61.45381
343.126	64.12623
343.584	65.47242
344.041	60.90389
344.499	83.33135
344.956	104.16708
345.414	55.1653
345.871	98.24542
346.328	60.70898
346.786	33.65889
347.243	122.5391
347.7	51.27819
348.157	55.63258
348.614	101.13656
349.071	87.80313
349.528	59.42888
349.985	61.61152
350.442	87.60818
350.899	93.02215
351.356	53.384
351.812	43.01907
352.269	82.8926
352.726	129.23564
353.182	64.47023
353.639	153.8547
354.095	37.60138
354.552	82.1396
355.008	61.20143
355.465	86.91347
355.921	56.78618
356.377	64.80993
356.833	51.42337
357.289	62.61185
357.745	77.3548
358.201	71.66183
358.657	81.81558
359.113	54.616
359.569	81.98286
360.025	76.10212
360.481	65.7096
360.937	63.73485
361.392	69.93498
361.848	56.96839
362.303	51.86708
362.759	57.25771
363.214	65.42806
363.67	69.1854
364.125	62.09744
364.581	56.75397
365.036	55.74894
365.491	72.09045
365.946	64.17942
366.401	60.79053
366.856	62.78606
367.311	59.37206
367.766	64.18354
368.221	50.10273
368.676	54.60085
369.131	60.19757
369.586	53.7172
370.041	57.43325
370.495	51.58763
370.95	60.05535
371.404	54.93003
371.859	59.6567
372.313	55.69618
372.768	56.42978
373.222	52.93877
373.676	57.77448
374.131	59.51767
374.585	55.17505
375.039	57.25273
375.493	59.04839
375.947	58.59659
376.401	57.63489
376.855	53.96917
377.309	54.15998
377.763	58.01846
378.217	58.4829
378.67	58.49424
379.124	57.15746
379.578	57.02489
380.031	55.50807
380.485	56.08251
380.938	56.60744
381.392	54.61633
381.845	54.57274
382.299	56.84342
382.752	57.59427
383.205	56.97858
383.658	55.73757
384.111	56.28655
384.564	54.80741
385.018	57.15261
385.471	55.37492
385.923	57.48726
386.376	55.53701
386.829	56.44195
387.282	56.74576
387.735	56.94851
388.187	57.67549
388.64	57.99086
389.093	55.95996
389.545	57.44463
389.998	56.08889
390.45	57.42595
390.902	56.45882
391.355	57.6594
391.807	56.97395
392.259	56.79966
392.711	56.52471
393.163	56.63153
393.615	56.51384
394.068	56.1616
394.519	56.83354
394.971	57.09581
395.423	56.62024
395.875	56.86398
396.327	57.05622
396.779	56.43604
397.23	56.6775
397.682	56.83929
398.133	55.90508
398.585	55.89817
399.036	56.26635
399.488	56.11947
399.939	56.61438
400.39	55.60874
400.842	56.02369
401.293	56.44197
401.744	55.88394
402.195	55.95888
402.646	55.12023
403.097	55.12019
403.548	55.34825
403.999	55.40989
404.45	55.00919
404.9	55.28963
405.351	54.65837
405.802	54.78351
406.253	54.82298
406.703	54.51633
407.154	54.83687
407.604	54.55898
408.055	53.53351
408.505	54.11403
408.955	53.69254
409.406	53.63888
409.856	52.845
410.306	53.45199
410.756	53.19185
411.206	53.19937
411.656	52.90637
412.106	52.63522
412.556	51.95867
413.006	52.32633
413.456	51.80258
413.905	51.95907
414.355	51.49336
414.805	51.57151
415.254	51.7469
415.704	51.07372
416.153	50.91822
416.603	50.95408
417.052	50.72577
417.502	50.69779
417.951	50.31548
418.4	50.30612
418.849	50.25598
419.298	49.92344
419.748	49.90302
420.197	50.26755
420.646	49.55841
421.094	49.42061
421.543	49.96261
421.992	49.82094
422.441	49.18624
422.89	48.81775
423.338	48.9735
423.787	48.60463
424.236	48.47464
424.684	48.38584
425.133	48.55003
425.581	48.20041
426.029	48.59547
426.478	48.10712
426.926	47.80728
427.374	48.51369
427.822	47.85754
428.27	47.60131
428.718	47.22379
429.166	47.67936
429.614	47.5111
430.062	47.64631
430.51	46.69187
430.958	47.17181
431.406	47.02342
431.853	46.88154
432.301	46.84582
432.749	46.81997
433.196	46.92893
433.644	46.34438
434.091	46.41544
434.538	46.5668
434.986	46.80655
435.433	46.42926
435.88	46.58174
436.327	46.65111
436.775	46.76832
437.222	46.31206
437.669	46.62041
438.116	45.85109
438.563	45.82682
439.009	46.16524
439.456	46.27595
439.903	46.1513
440.35	45.84855
440.796	45.77664
441.243	45.66811
441.689	45.65679
442.136	45.93483
442.582	46.0406
443.029	45.71979
443.475	45.91294
443.921	45.47868
444.368	45.22233
444.814	46.19779
445.26	46.42365
445.706	46.17351
446.152	46.22773
446.598	46.23795
447.044	45.81519
447.49	46.11584
447.936	46.07729
448.381	46.21938
448.827	46.10077
449.273	45.78125
449.718	45.8955
450.164	46.16476
450.61	45.78397
451.055	46.18748
451.5	46.2444
451.946	46.32651
452.391	46.15832
452.836	46.25547
453.282	45.93024
453.727	46.0082
454.172	46.2987
454.617	46.41989
455.062	46.35474
455.507	46.52422
455.952	46.55307
456.396	46.30282
456.841	46.67752
457.286	46.86179
457.731	46.90786
458.175	46.84125
458.62	46.37531
459.064	47.08266
459.509	46.59282
459.953	46.95493
460.398	46.97231
460.842	47.27156
461.286	47.46847
461.73	47.99717
462.174	47.63598
462.619	47.78526
463.063	47.3885
463.507	47.61956
463.951	47.96774
464.394	48.01233
464.838	48.48279
465.282	48.53799
465.726	48.42351
466.17	48.5207
466.613	48.69671
467.057	48.71475
467.5	48.57544
467.944	48.6084
468.387	49.14404
468.831	49.52941
469.274	49.5121
469.717	50.09935
470.16	50.4981
470.603	50.24569
471.047	50.84632
471.49	50.85922
471.933	50.7015
472.376	51.16314
472.818	51.21809
473.261	52.10298
473.704	51.77018
474.147	51.87552
474.59	52.04706
475.032	52.08411
475.475	52.20493
475.917	52.4917
476.36	52.69736
476.802	52.88065
477.245	53.02376
477.687	53.26892
478.129	53.71777
478.571	53.92641
479.013	54.19886
479.456	54.34707
479.898	54.36297
480.34	54.18147
480.782	54.25863
481.224	54.39724
481.665	54.81902
482.107	55.04569
482.549	54.75115
482.991	54.74825
483.432	55.05309
483.874	55.12092
484.315	55.45133
484.757	55.38705
485.198	55.77899
485.64	55.51803
486.081	55.653
486.522	56.38234
486.963	55.86093
487.405	56.23441
487.846	56.56548
488.287	56.30075
488.728	56.64823
489.169	56.49222
489.61	56.7128
490.05	56.80269
490.491	56.80662
490.932	56.63092
491.373	56.80349
491.813	56.72548
492.254	56.7239
492.694	56.87357
493.135	56.95247
493.575	57.01303
494.016	57.11111
494.456	57.64969
494.896	57.45613
495.336	58.30277
495.777	57.91356
496.217	57.65292
496.657	58.08321
497.097	58.76777
497.537	58.72251
497.977	58.32532
498.416	58.48772
498.856	58.09445
499.296	58.16392
499.736	58.65862
500.175	58.4806
500.615	58.91099
501.054	58.76609
501.494	59.03746
501.933	59.60563
502.373	59.63388
502.812	59.2047
503.251	59.61735
503.69	59.34834
504.129	59.74291
504.569	60.28139
505.008	60.2298
505.447	60.45302
505.886	61.01857
506.324	60.77586
506.763	60.86255
507.202	61.65969
507.641	61.80858
508.079	62.13851
508.518	62.3023
508.957	62.54863
509.395	62.51517
509.834	62.62637
510.272	63.08109
510.71	63.40554
511.149	63.23453
511.587	64.30548
512.025	63.82319
512.463	64.26422
512.901	64.39381
513.339	64.54282
513.777	64.61714
514.215	64.16662
514.653	64.55325
515.091	65.45009
515.529	65.88682
515.966	65.78435
516.404	66.10448
516.842	66.31041
517.279	66.29446
517.717	66.47638
518.154	66.27239
518.592	66.96629
519.029	67.00477
519.466	67.19207
519.904	67.7907
520.341	67.88501
520.778	67.9068
521.215	68.63817
521.652	68.90473
522.089	69.05635
522.526	69.16539
522.963	69.21216
523.399	70.02743
523.836	70.50861
524.273	70.58633
524.71	70.93419
525.146	70.95655
525.583	71.46546
526.019	71.06654
526.456	71.19031
526.892	71.3109
527.328	71.86813
527.765	72.15676
528.201	72.00111
528.637	72.98915
529.073	72.07711
529.509	72.8811
529.945	73.01267
530.381	73.05441
530.817	73.08166
531.253	73.1643
531.689	74.09318
532.124	73.38077
532.56	74.42292
532.996	73.95012
533.431	73.83593
533.867	74.44846
534.302	74.49549
534.738	74.6764
535.173	74.85174
535.608	75.26403
536.044	74.76604
536.479	74.94
536.914	75.43021
537.349	74.79576
537.784	74.89249
538.219	75.86716
538.654	75.33707
539.089	75.60709
539.524	75.0469
539.959	75.69497
540.393	75.96436
540.828	76.0379
541.263	76.17453
541.697	76.68862
542.132	76.59633
542.566	76.13497
543.001	76.32916
543.435	76.35598
543.869	76.42268
544.303	76.02551
544.738	76.36023
545.172	76.21847
545.606	76.54987
546.04	76.24403
546.474	76.81504
546.908	75.72017
547.342	76.20182
547.775	76.79489
548.209	76.50882
548.643	75.59497
549.077	76.83523
549.51	76.80967
549.944	76.39996
550.377	76.49227
550.811	75.56404
551.244	75.57567
551.677	75.16159
552.111	75.02091
552.544	75.37576
552.977	75.50146
553.41	74.72351
553.843	75.35585
554.276	75.0675
554.709	74.88426
555.142	74.94105
555.575	74.46264
556.008	74.72629
556.44	73.96165
556.873	73.36872
557.306	73.83889
557.738	72.73202
558.171	73.01892
558.603	73.07504
559.036	72.90561
559.468	72.14597
559.9	72.57772
560.333	72.1783
560.765	71.99749
561.197	71.66944
561.629	71.41828
562.061	71.18289
562.493	70.97373
562.925	70.44617
563.357	70.27532
563.789	70.29047
564.22	70.27655
564.652	69.50405
565.084	69.96049
565.515	69.11044
565.947	68.38218
566.378	68.72494
566.81	68.18046
567.241	68.20462
567.672	68.00912
568.104	68.24091
568.535	67.49332
568.966	67.62508
569.397	67.1937
569.828	67.03681
570.259	66.77751
570.69	65.96453
571.121	65.64526
571.552	65.99228
571.983	64.83761
572.414	65.21781
572.844	65.17419
573.275	64.79872
573.705	64.75515
574.136	64.30142
574.566	64.62771
574.997	64.40126
575.427	64.13837
575.857	64.01806
576.288	63.46419
576.718	63.63259
577.148	63.06145
577.578	62.91665
578.008	62.62291
578.438	62.36206
578.868	62.29196
579.298	61.89096
579.728	61.38035
580.157	60.79983
580.587	60.31158
581.017	60.2366
581.446	60.06255
581.876	59.39496
582.305	59.23909
582.735	59.14838
583.164	59.04891
583.593	58.7181
584.023	58.61045
584.452	58.15734
584.881	57.81859
585.31	57.94361
585.739	58.10178
586.168	57.96638
586.597	57.50162
587.026	57.50559
587.455	57.63645
587.884	57.78983
588.312	57.33779
588.741	56.75903
589.17	56.65994
589.598	56.71594
590.027	56.44708
590.455	55.74163
590.884	55.73964
591.312	55.77408
591.74	55.8379
592.168	55.10724
592.597	54.94411
593.025	54.79431
593.453	54.45276
593.881	54.44746
594.309	53.93949
594.737	53.77028
595.165	53.6743
595.592	53.50293
596.02	53.58549
596.448	53.24942
596.875	53.28658
597.303	53.04023
597.73	52.42271
598.158	52.41671
598.585	52.08353
599.013	51.72515
599.44	51.63045
599.867	51.5284
600.294	51.49923
600.722	51.48303
601.149	51.61879
601.576	51.36572
602.003	51.62945
602.43	51.24061
602.856	51.3266
603.283	51.46867
603.71	51.02011
604.137	50.47864
604.563	50.72
604.99	50.38474
605.416	50.09044
605.843	49.65457
606.269	49.59014
606.696	49.433
607.122	49.47054
607.548	49.72821
607.975	49.53285
608.401	49.89983
608.827	49.54039
609.253	49.24361
609.679	49.35841
610.105	48.89816
610.531	48.58488
610.956	48.70288
611.382	48.55601
611.808	48.66259
612.234	48.44364
612.659	48.75785
613.085	48.80442
613.51	48.32203
613.936	48.30148
614.361	47.72855
614.786	47.78068
615.212	47.62135
615.637	47.7782
616.062	47.80404
616.487	47.66703
616.912	47.71832
617.337	47.72473
617.762	47.55505
618.187	47.4151
618.612	47.19953
619.037	47.0745
619.461	47.14892
619.886	47.07843
620.311	47.01311
620.735	47.34197
621.16	46.97018
621.584	46.98075
622.008	47.04691
622.433	46.9759
622.857	46.95138
623.281	46.87151
623.705	46.95218
624.13	46.92279
624.554	46.73302
624.978	46.87128
625.402	46.93269
625.826	46.52945
626.249	46.93964
626.673	46.26416
627.097	46.73209
627.521	46.5702
627.944	46.90212
628.368	46.72634
628.791	46.75619
629.215	46.82068
629.638	47.03426
630.061	47.27497
630.485	47.07241
630.908	47.22523
631.331	47.10098
631.754	47.22314
632.177	47.29743
632.6	47.18536
633.023	47.14232
633.446	47.61024
633.869	47.58987
634.292	47.95469
634.715	48.12198
635.137	47.84672
635.56	48.14884
635.982	48.77978
636.405	47.99711
636.827	48.33356
637.25	48.4122
637.672	48.41975
638.094	48.84529
638.517	48.74526
638.939	48.65478
639.361	49.11642
639.783	49.01767
640.205	49.39265
640.627	49.56728
641.049	49.811
641.471	50.12782
641.893	49.9509
642.314	50.20072
642.736	49.90797
643.158	50.18983
643.579	50.57286
644.001	50.19719
644.422	49.96304
644.844	50.24605
645.265	50.54647
645.686	50.90649
646.107	50.39098
646.529	50.96265
646.95	50.83071
647.371	51.09455
647.792	50.82933
648.213	51.3907
648.634	51.60332
649.055	51.62793
649.475	52.05136
649.896	52.30816
650.317	52.12115
650.737	52.42226
651.158	52.74995
651.578	53.11196
651.999	53.29348
652.419	52.61753
652.84	53.7064
653.26	53.47765
653.68	54.04759
654.1	53.73956
654.521	54.10727
654.941	54.22426
655.361	54.31803
655.781	54.79437
656.2	55.43413
656.62	54.90167
657.04	54.98714
657.46	55.48071
657.879	55.66078
658.299	55.42682
658.719	56.02289
659.138	55.73159
659.558	56.70311
659.977	56.52673
660.396	56.9668
660.816	56.47353
661.235	57.26992
661.654	56.8454
662.073	57.59162
662.492	57.56304
662.911	57.8481
663.33	57.91128
663.749	57.59414
664.168	57.84637
664.587	58.24324
665.006	58.33494
665.424	58.98164
665.843	58.732
666.261	59.13318
666.68	58.91427
667.098	59.52239
667.517	59.47307
667.935	59.01005
668.353	59.65069
668.772	59.87345
669.19	59.74504
669.608	60.35493
670.026	60.56417
670.444	60.47025
670.862	59.98496
671.28	60.32415
671.698	59.97039
672.115	60.36761
672.533	60.4895
672.951	60.39552
673.368	60.5451
673.786	59.88967
674.203	60.57045
674.621	60.36342
675.038	59.69248
675.456	60.46609
675.873	59.84292
676.29	60.20153
676.707	59.87601
677.124	59.46038
677.541	59.67074
677.958	59.37429
678.375	59.76133
678.792	59.80584
679.209	59.29627
679.626	59.99856
680.043	60.29593
680.459	60.68175
680.876	59.69979
681.292	60.28478
681.709	59.86356
682.125	59.71698
682.542	59.57669
682.958	58.49657
683.374	59.48493
683.79	59.2538
684.207	59.3917
684.623	59.18934
685.039	59.20387
685.455	59.33552
685.871	58.60364
686.286	59.3467
686.702	58.53459
687.118	58.88492
687.534	58.25684
687.949	58.86218
688.365	58.96023
688.781	57.81755
689.196	58.13961
689.611	57.56586
690.027	57.82591
690.442	57.17892
690.857	57.47839
691.273	57.19749
691.688	57.06198
692.103	57.06626
692.518	56.31717
692.933	56.60053
693.348	56.05843
693.763	56.22373
694.177	55.26609
694.592	55.60433
695.007	55.3787
695.421	55.22372
695.836	54.67834
696.25	54.67038
696.665	53.84343
697.079	54.82948
697.494	54.03427
697.908	53.69408
698.322	53.61644
698.736	53.29999
699.151	53.78714
699.565	53.00727
699.979	52.83299
700.393	52.74826
700.806	52.10302
701.22	51.97178
701.634	52.23913
702.048	52.30406
702.461	51.01667
702.875	51.46734
703.289	50.91886
703.702	51.06106
704.116	50.17093
704.529	50.34739
704.942	49.27683
705.356	49.86147
705.769	49.20366
706.182	48.71797
706.595	48.30981
707.008	47.76115
707.421	47.4592
707.834	47.68624
708.247	47.58066
708.66	47.13075
709.072	47.40647
709.485	46.30278
709.898	46.71605
710.31	46.00235
710.723	46.34751
711.135	44.85762
711.548	44.95506
711.96	44.28452
712.373	44.77009
712.785	44.06836
713.197	44.13967
713.609	43.51289
714.021	43.08122
714.433	43.15128
714.845	42.85466
715.257	42.5942
715.669	42.21878
716.081	41.41723
716.493	41.62982
716.904	41.46527
717.316	41.21029
717.727	40.74199
718.139	40.62655
718.55	40.26908
718.962	39.80793
719.373	39.72325
719.784	39.72265
720.196	39.49694
720.607	39.81761
721.018	39.15014
721.429	38.57078
721.84	38.60573
722.251	37.78577
722.662	37.96609
723.073	38.04864
723.483	37.73048
723.894	37.34114
724.305	36.49409
724.715	36.69796
725.126	36.37076
725.536	35.85826
725.947	35.82097
726.357	35.39391
726.768	35.60832
727.178	35.17631
727.588	34.92253
727.998	34.7581
728.408	35.00043
728.818	34.5099
729.228	34.07473
729.638	34.07566
730.048	33.61867
730.458	33.7383
730.868	33.33382
731.277	33.56729
731.687	32.95201
732.097	32.92398
732.506	32.71633
732.916	32.77891
733.325	32.0753
733.734	32.21593
734.144	31.61762
734.553	31.70087
734.962	31.25902
735.371	31.40921
735.78	30.84895
736.189	31.1449
736.598	30.77789
737.007	31.07784
737.416	30.35843
737.825	30.61864
738.233	29.67903
738.642	30.54586
739.051	29.50213
739.459	29.96903
739.868	29.99083
740.276	29.89197
740.684	29.42954
741.093	29.0357
741.501	28.84109
741.909	28.59009
742.317	29.03001
742.725	28.3998
743.133	28.39004
743.541	28.17971
743.949	28.41638
744.357	28.23588
744.765	28.40811
745.173	27.69032
745.58	28.11074
745.988	27.13269
746.396	27.68289
746.803	27.01461
747.211	27.24039
747.618	27.0211
748.025	26.87084
748.433	27.0469
748.84	26.56094
749.247	27.13432
749.654	26.39654
750.061	26.70404
750.468	26.21324
750.875	26.91038
751.282	26.48094
751.689	26.62548
752.096	25.82794
752.502	26.39848
752.909	26.1924
753.316	26.06926
753.722	26.39876
754.129	25.6253
754.535	26.03333
754.941	25.38938
755.348	26.02651
755.754	25.21085
756.16	25.65696
756.566	25.31789
756.972	25.76732
757.378	25.42088
757.784	25.15073
758.19	25.32096
758.596	25.12028
759.002	25.19059
759.408	24.81691
759.813	25.36131
760.219	24.74831
760.624	24.98502
761.03	24.42016
761.435	25.19984
761.841	24.60768
762.246	24.052
762.651	24.39272
763.057	23.94064
763.462	24.84306
763.867	24.25445
764.272	24.7975
764.677	24.40551
765.082	24.98306
765.487	24.90606
765.892	24.75214
766.296	24.79075
766.701	24.13739
767.106	24.63611
767.51	24.06019
767.915	24.52716
768.319	24.43066
768.724	24.41289
769.128	24.19044
769.532	23.82368
769.936	24.18258
770.341	23.54424
770.745	23.86867
771.149	23.69508
771.553	23.79741
771.957	23.97865
772.361	22.85259
772.764	23.64781
773.168	23.08701
773.572	23.69986
773.976	23.49379
774.379	23.78641
774.783	23.48638
775.186	23.25163
775.59	23.67874
775.993	22.90136
776.396	23.46216
776.8	22.91224
777.203	23.6019
777.606	23.52367
778.009	22.68857
778.412	23.52724
778.815	22.89214
779.218	23.93215
779.621	23.20212
780.023	23.8131
780.426	23.80365
780.829	23.89658
781.231	24.08079
781.634	22.80525
782.036	23.702
782.439	23.25816
782.841	23.05445
783.244	23.66052
783.646	22.84677
784.048	23.52606
784.45	23.662
784.852	23.68781
785.254	23.63576
785.656	23.10178
786.058	23.54661
786.46	23.0905
786.862	23.56762
787.264	23.01053
787.665	23.09092
788.067	23.10254
788.468	22.87868
788.87	23.4443
789.271	22.62165
789.673	23.48548
790.074	23.57487
790.475	22.95867
790.877	23.66794
791.278	22.98417
791.679	23.61201
792.08	23.07151
792.481	23.23434
792.882	23.62704
793.283	22.8491
793.683	23.45865
794.084	22.98344
794.485	23.25527
794.886	23.37183
795.286	22.6544
795.687	22.98864
796.087	22.62554
796.487	22.94644
796.888	23.32917
797.288	23.00364
797.688	22.88931
798.088	23.11711
798.489	23.02043
798.889	23.09297
799.289	22.80401
799.689	23.05487
800.088	22.66787
800.488	23.08275
800.888	23.28441
801.288	22.78623
801.687	23.69765
802.087	23.1738
802.486	23.81254
802.886	23.66187
803.285	23.35789
803.685	24.00795
804.084	23.69069
804.483	23.54516
804.882	24.38653
805.281	23.69794
805.68	24.27348
806.079	24.3532
806.478	23.78108
806.877	24.19817
807.276	23.22073
807.675	24.16044
808.074	24.21791
808.472	23.94825
808.871	24.23774
809.269	24.32605
809.668	24.17508
810.066	24.16678
810.465	24.11094
810.863	24.54823
811.261	24.22209
811.659	23.85744
812.057	23.94016
812.455	23.69812
812.853	24.57732
813.251	24.33374
813.649	23.91399
814.047	24.88225
814.445	23.83106
814.843	24.12367
815.24	24.03481
815.638	23.94688
816.035	24.20495
816.433	23.90573
816.83	24.53555
817.228	24.44405
817.625	23.78122
818.022	24.39145
818.419	23.79703
818.816	23.65089
819.213	24.37497
819.61	24.02277
820.007	24.46216
820.404	24.88161
820.801	24.26784
821.198	25.33107
821.595	24.82118
821.991	24.76552
822.388	25.39797
822.784	25.08274
823.181	25.44133
823.577	25.57017
823.974	25.22183
824.37	25.62371
824.766	25.33787
825.162	24.94425
825.558	25.36065
825.954	24.83877
826.35	25.09192
826.746	25.73501
827.142	25.22791
827.538	25.67873
827.934	25.69789
828.33	25.21146
828.725	25.39499
829.121	25.18414
829.516	25.09583
829.912	25.58716
830.307	24.57965
830.703	24.85738
831.098	24.83058
831.493	24.5181
831.888	25.18938
832.283	24.92659
832.678	24.62999
833.073	25.36715
833.468	24.87918
833.863	25.41167
834.258	25.64338
834.653	25.12525
835.048	25.70474
835.442	25.28571
835.837	25.39098
836.231	25.69195
836.626	25.18731
837.02	25.26068
837.415	26.28914
837.809	25.41218
838.203	25.55523
838.597	25.81219
838.991	24.43006
839.385	25.06684
839.779	26.03295
840.173	24.90011
840.567	25.95171
840.961	26.20346
841.355	25.41771
841.748	26.01497
842.142	25.8703
842.536	25.33796
842.929	26.22065
843.323	26.0161
843.716	26.22404
844.109	26.18415
844.503	25.01083
844.896	25.31863
845.289	26.31333
845.682	26.38598
846.075	26.77431
846.468	26.11436
846.861	26.25397
847.254	26.09457
847.647	26.34593
848.04	26.07023
848.432	25.91724
848.825	25.6548
849.217	26.5714
849.61	26.16433
850.002	25.78403
850.395	26.18728
850.787	26.53064
851.179	25.67348
851.572	26.43803
851.964	26.28906
852.356	25.95509
852.748	25.16303
853.14	26.86821
853.532	25.84944
853.924	26.44998
854.315	26.33631
854.707	26.42943
855.099	25.93832
855.491	27.24532
855.882	25.79705
856.274	26.76284
856.665	26.52997
857.056	25.50967
857.448	25.49044
857.839	26.67178
858.23	24.99907
858.621	25.69907
859.012	26.06893
859.403	24.48167
859.794	25.44542
860.185	26.3522
860.576	26.09836
860.967	25.62908
861.358	26.40368
861.748	26.05785
862.139	25.33964
862.529	25.94884
862.92	25.01961
863.31	24.98228
863.701	26.61722
864.091	24.96273
864.481	25.3119
864.872	26.51249
865.262	25.60422
865.652	26.456
866.042	25.54778
866.432	24.95429
866.822	25.3385
867.211	25.80663
867.601	25.25891
867.991	25.40802
868.381	25.74206
868.77	25.24162
869.16	25.73446
869.549	24.91813
869.939	24.67155
870.328	25.45749
870.717	25.78826
871.106	25.09497
871.496	25.86444
871.885	25.3333
872.274	24.72847
872.663	25.71777
873.052	25.55257
873.441	24.78631
873.829	25.49937
874.218	25.45918
874.607	25.37507
874.996	26.14467
875.384	25.09527
875.773	24.812
876.161	25.63961
876.549	25.83982
876.938	25.70236
877.326	25.55287
877.714	25.50619
878.102	25.13157
878.491	24.91154
878.879	25.4801
879.267	24.82885
879.655	24.57562
880.042	25.60496
880.43	25.31564
880.818	25.14093
881.206	25.5872
881.593	25.64963
881.981	25.23922
882.368	25.59856
882.756	25.99072
883.143	25.39685
883.53	25.93757
883.918	25.42635
884.305	25.33394
884.692	25.18627
885.079	26.01764
885.466	25.1691
885.853	25.04463
886.24	25.82083
886.627	25.07551
887.014	24.5107
887.4	25.52738
887.787	25.06488
888.174	25.13838
888.56	25.08643
888.947	24.7991
889.333	24.50789
889.719	25.29694
890.106	25.18212
890.492	24.89497
890.878	24.93452
891.264	25.36809
891.65	25.36717
892.036	24.81552
892.422	25.29821
892.808	24.82464
893.194	24.40106
893.58	24.89921
893.965	24.46584
894.351	24.25176
894.736	24.75283
895.122	24.83725
895.507	24.45541
895.893	24.19542
896.278	25.02857
896.663	24.62896
897.049	25.05346
897.434	25.16321
897.819	25.06906
898.204	25.04685
898.589	25.44261
898.974	24.98404
899.359	24.60861
899.743	25.69743
900.128	25.24452
900.513	24.96019
900.897	25.27827
901.282	24.56466
901.667	25.01688
902.051	23.94725
902.435	24.58439
902.82	24.07477
903.204	24.16299
903.588	24.90787
903.972	24.61471
904.356	24.54662
904.74	24.22786
905.124	24.61232
905.508	24.81401
905.892	25.06316
906.276	24.71809
906.659	24.95141
907.043	24.28121
907.427	25.50086
907.81	25.24594
908.194	24.89144
908.577	25.09689
908.96	25.33026
909.344	24.1684
909.727	24.51951
910.11	25.16999
910.493	24.29116
910.876	24.76366
911.259	24.48302
911.642	24.39637
912.025	24.26999
912.408	23.97887
912.79	24.07252
913.173	23.66391
913.556	23.61717
913.938	24.17958
914.321	23.62326
914.703	22.6737
915.086	23.5121
915.468	23.6996
915.85	23.23773
916.232	23.23707
916.614	24.02337
916.996	24.0783
917.378	23.52652
917.76	23.52658
918.142	24.1138
918.524	24.1884
918.906	24.05658
919.288	25.2328
919.669	24.41787
920.051	24.47544
920.432	23.79814
920.814	24.85442
921.195	24.61378
921.577	24.37373
921.958	25.04957
922.339	25.09625
922.72	24.15146
923.101	25.08325
923.482	25.67287
923.863	25.24463
924.244	24.29305
924.625	24.4155
925.006	24.75905
925.387	25.7831
925.767	24.44194
926.148	24.9622
926.528	24.84088
926.909	23.90569
927.289	24.76985
927.67	24.32278
928.05	24.11864
928.43	24.66267
928.81	24.87275
929.191	24.75755
929.571	24.56691
929.951	23.35565
930.331	24.48973
930.71	23.68588
931.09	23.40434
931.47	25.05159
931.85	24.27584
932.229	24.59991
932.609	25.3245
932.988	23.8897
933.368	23.53089
933.747	23.83422
934.127	25.57933
934.506	23.78362
934.885	23.23836
935.264	23.65889
935.643	24.16171
936.022	23.85884
936.401	25.22847
936.78	24.13345
937.159	24.31101
937.538	23.62806
937.916	22.75519
938.295	25.09796
938.674	23.00482
939.052	24.46104
939.431	24.45851
939.809	24.36588
940.187	24.49055
940.566	23.33566
940.944	24.51047
941.322	23.17939
941.7	22.05396
942.078	25.03397
942.456	24.55611
942.834	23.17952
943.212	23.94796
943.59	23.97245
943.968	23.40858
944.345	24.84404
944.723	23.56032
945.1	23.16546
945.478	23.78149
945.855	24.56124
946.233	23.26176
946.61	24.52848
946.987	24.43201
947.365	21.87135
947.742	23.2564
948.119	22.24801
948.496	22.82045
948.873	23.82119
949.25	24.14198
949.626	24.25655
950.003	23.73332
950.38	24.10564
950.756	23.2752
951.133	25.00157
951.51	24.33174
951.886	23.80768
952.262	23.61047
952.639	24.98202
953.015	25.18048
953.391	22.37895
953.767	23.15405
954.143	23.43907
954.519	25.28825
954.895	23.44486
955.271	24.56613
955.647	24.15099
956.023	22.43181
956.399	24.22913
956.774	24.23305
957.15	23.96286
957.525	22.9032
957.901	22.28792
958.276	22.16624
958.652	23.06653
959.027	25.0758
959.402	22.97796
959.777	24.64248
960.152	21.7842
960.527	23.67036
960.902	22.9488
961.277	22.51847
961.652	22.48893
962.027	22.96668
962.402	20.63792
962.776	23.22363
963.151	20.87423
963.525	21.86557
963.9	23.83726
964.274	22.99416
964.649	22.51031
965.023	22.27027
965.397	25.09159
965.771	20.97714
966.146	21.94077
966.52	20.61531
966.894	23.45982
967.268	21.6647
967.641	21.82903
968.015	23.0181
968.389	22.90678
968.763	22.17461
969.136	22.99744
969.51	23.59839
969.883	23.29034
970.257	21.9109
970.63	23.97488
971.003	22.31803
971.377	22.82017
971.75	20.8688
972.123	22.99342
972.496	22.50525
972.869	23.81206
973.242	22.69082
973.615	23.94619
973.988	24.00823
974.36	22.70585
974.733	22.7752
975.106	21.74868
975.478	23.32063
975.851	22.06079
976.223	20.99011
976.596	21.61717
976.968	22.86171
977.34	21.80046
977.712	22.03861
978.085	20.59449
978.457	21.45216
978.829	21.52856
979.201	21.95299
979.573	20.831
979.944	21.1156
980.316	20.28638
980.688	21.706
981.059	21.59624
981.431	20.41137
981.803	22.57619
982.174	20.52058
982.545	22.6695
982.917	22.7991
983.288	22.76454
983.659	22.62765
984.03	20.91649
984.401	20.50913
984.772	22.77773
985.143	21.80018
985.514	19.89151
985.885	21.76845
986.256	20.66456
986.627	22.40843
986.997	22.68331
987.368	23.7703
987.738	21.2838
988.109	23.2532
988.479	22.53031
988.85	20.74869
989.22	22.25894
989.59	21.01347
989.96	19.11189
990.33	21.1908
990.7	19.9268
991.07	20.49324
991.44	19.62674
991.81	20.71466
992.18	21.14293
992.549	21.20286
992.919	21.61728
993.289	19.8207
993.658	22.11733
994.028	20.53515
994.397	21.09876
994.766	18.38196
995.136	20.89296
995.505	20.27502
995.874	21.08244
996.243	19.20989
996.612	21.29663
996.981	21.46452
997.35	23.18104
997.719	23.09081
998.088	22.29451
998.456	21.98363
998.825	21.67155
999.194	23.25063
999.562	20.48313
999.931	22.6729
1000.299	20.97378
1000.667	22.74471
1001.036	22.47473
1001.404	23.08809
1001.772	23.09699
1002.14	21.47602
1002.508	18.06851
1002.876	23.09285
1003.244	25.59965
1003.612	22.39459
1003.98	17.4923
1004.347	20.80079
1004.715	20.97679
1005.083	25.32494
1005.45	18.52204
1005.818	23.90457
1006.185	21.60542
1006.552	19.74958
1006.92	19.37327
1007.287	19.55799
1007.654	21.67442
1008.021	18.65074
1008.388	23.83439
1008.755	24.37096
1009.122	22.11288
1009.489	19.92611
1009.856	16.80258
1010.222	19.63569
1010.589	20.09506
1010.956	23.37764
1011.322	21.26322
1011.689	20.90523
1012.055	19.80841
1012.421	18.7846
1012.788	20.69849
1013.154	20.87256
1013.52	21.49848
1013.886	23.3881
1014.252	19.60576
1014.618	20.72832
1014.984	19.30721
1015.35	24.55329
1015.716	18.06712
1016.081	24.56374
1016.447	22.98165
1016.813	21.22664
1017.178	21.07716
1017.544	24.69023
1017.909	26.36807
1018.274	20.21034
1018.64	21.48836
1019.005	27.11616
1019.37	22.59485
1019.735	20.51171
1020.1	21.74868
1020.465	18.24957
1020.83	24.73617
1021.195	26.71168
1021.56	25.08989
1021.924	28.61491
1022.289	15.64814
1022.654	22.98436
1023.018	27.2041
1023.383	25.59713
1023.747	25.79391
1024.111	32.48991
1024.476	19.1167
1024.84	23.83926
1025.204	26.7215
1025.568	24.03403
1025.932	26.56607
1026.296	23.53655
1026.66	27.86401
1027.024	27.12375
1027.387	21.66628
1027.751	26.07916
1028.115	19.28424
1028.478	34.65119
1028.842	29.07077
1029.205	23.30254
1029.569	16.92151
1029.932	29.51142
1030.295	23.14984
1030.659	26.63459
1031.022	22.9686
1031.385	16.24525
1031.748	23.92129
1032.111	13.67223
1032.474	33.80926
1032.836	18.46288
1033.199	28.89281
1033.562	22.93804
1033.924	18.27538
1034.287	30.44269
1034.65	28.10841
1035.012	18.47676
1035.374	18.49748
1035.737	19.86738
1036.099	24.77108
1036.461	25.53311
1036.823	27.91952
1037.185	19.60445
1037.547	25.52624
1037.909	17.98424
1038.271	33.41509
1038.633	22.66725
1038.995	35.2445
1039.356	36.13514
1039.718	18.57223
1040.08	34.31995
1040.441	31.04562
1040.803	16.21929
1041.164	24.16592
1041.525	16.83042
1041.886	33.18444
1042.248	22.65626
1042.609	23.03788
1042.97	37.487
1043.331	28.40237
1043.692	42.5161
1044.053	28.93808
1044.413	27.94263
1044.774	31.07481
1045.135	6.28049
1045.495	35.82242
1045.856	28.42314
1046.216	25.24512
1046.577	25.22564
1046.937	32.67398
1047.298	28.8902
