Data from 1015water_Reflection__25__16-53-43-091.txt Node

Date: Wed Oct 15 16:53:43 AST 2025
User: lin
Spectrometer: SR600411
Trigger mode: 0
Integration Time (sec): 5.819800E-2
Scans to average: 5
Nonlinearity correction enabled: true
Boxcar width: 0
Storing dark spectrum: false
XAxis mode: Wavelengths
Number of Pixels in Spectrum: 2048
>>>>>Begin Spectral Data<<<<<
187.982	69.58561
188.456	70.8376
188.93	61.64822
189.403	56.03063
189.877	64.20042
190.351	67.67432
190.825	63.7865
191.298	64.54847
191.772	68.60903
192.246	58.97576
192.719	75.34767
193.193	66.00081
193.666	75.58909
194.139	54.63361
194.613	56.15378
195.086	65.62273
195.559	59.2101
196.033	59.83288
196.506	64.72187
196.979	65.2527
197.452	66.47404
197.925	66.56383
198.398	65.4821
198.871	66.74588
199.344	64.36046
199.816	50.42567
200.289	62.85223
200.762	73.88516
201.235	60.31216
201.707	72.18843
202.18	59.03754
202.652	66.33694
203.125	63.06004
203.597	62.10429
204.07	52.30126
204.542	64.50767
205.014	82.6624
205.486	71.57128
205.959	63.56922
206.431	66.99644
206.903	67.94197
207.375	61.61984
207.847	49.70873
208.319	80.74037
208.791	43.92218
209.263	96.20196
209.734	59.31638
210.206	81.6631
210.678	57.99516
211.15	109.89207
211.621	72.99609
212.093	79.02818
212.564	81.89314
213.036	42.63002
213.507	99.03826
213.979	95.52125
214.45	43.40456
214.921	76.25399
215.392	74.99643
215.864	62.38771
216.335	71.81376
216.806	78.66417
217.277	57.93041
217.748	95.96679
218.219	72.47732
218.69	64.2787
219.161	97.8257
219.631	63.90369
220.102	93.47715
220.573	68.91263
221.043	75.5859
221.514	58.42267
221.985	118.57449
222.455	55.60926
222.926	103.53003
223.396	55.55026
223.866	81.96363
224.337	62.2592
224.807	85.24286
225.277	63.32919
225.747	58.50611
226.217	79.82091
226.687	55.80764
227.157	86.98911
227.627	66.17043
228.097	69.1719
228.567	76.98717
229.037	70.53109
229.507	86.91347
229.977	52.44047
230.446	64.11615
230.916	87.03462
231.386	81.44039
231.855	59.45415
232.325	95.31193
232.794	86.60456
233.263	24.1623
233.733	104.47823
234.202	79.58868
234.671	67.26791
235.14	89.87199
235.61	87.29881
236.079	74.73328
236.548	49.99335
237.017	72.63733
237.486	116.00368
237.955	179.55794
238.424	75.33708
238.892	38.2678
239.361	87.15354
239.83	35.62822
240.299	105.10308
240.767	95.94537
241.236	62.98625
241.704	86.07407
242.173	96.15327
242.641	74.332
243.109	132.00629
243.578	66.66045
244.046	88.88712
244.514	64.83796
244.982	49.06871
245.451	79.80436
245.919	96.18971
246.387	70.48676
246.855	102.8308
247.323	69.99625
247.791	88.88659
248.258	97.56059
248.726	60.64996
249.194	65.81926
249.662	92.85604
250.129	52.72183
250.597	50.87436
251.064	114.28821
251.532	59.99547
251.999	103.84698
252.467	121.95557
252.934	71.20675
253.401	126.4751
253.869	38.33962
254.336	77.26889
254.803	54.36387
255.27	79.46066
255.737	65.62213
256.204	95.4119
256.671	77.77469
257.138	109.3763
257.605	81.72768
258.072	71.29191
258.539	98.82333
259.005	83.33069
259.472	57.00414
259.939	54.28054
260.405	93.05463
260.872	67.32232
261.338	90.19518
261.805	87.03462
262.271	77.30678
262.737	97.67403
263.203	118.64666
263.67	84.12531
264.136	110.87177
264.602	38.97748
265.068	148.39593
265.534	94.99906
266	62.06354
266.466	88.88712
266.932	87.01126
267.398	31.61891
267.864	101.0103
268.329	95.91761
268.795	44.43959
269.261	99.01941
269.726	77.66635
270.192	59.45592
270.657	81.31593
271.123	48.38249
271.588	86.04344
272.053	104.16729
272.519	82.19996
272.984	35.82786
273.449	73.27135
273.914	72.52387
274.379	65.08955
274.844	74.06995
275.309	56.40454
275.774	95.60364
276.239	60.46103
276.704	52.93529
277.169	118.68533
277.634	65.51203
278.098	64.70203
278.563	124.66199
279.028	17.85551
279.492	56.79391
279.957	74.99732
280.421	38.51886
280.886	28.56831
281.35	59.79905
281.814	83.94845
282.279	98.73398
282.743	74.69568
283.207	85.71258
283.671	100
284.135	58.1765
284.599	106.59468
285.063	90.90819
285.527	86.53605
285.991	87.28554
286.455	88.23354
286.919	57.24554
287.382	100
287.846	52.69904
288.31	30.82825
288.773	138.10182
289.237	67.36427
289.7	103.63678
290.164	62.09098
290.627	78.56862
291.09	69.99666
291.554	90.99837
292.017	104.9391
292.48	49.08545
292.943	115.58717
293.406	64.07296
293.869	107.69316
294.332	95.69816
294.795	51.1748
295.258	146.16429
295.721	65.93588
296.184	92.78221
296.646	63.78778
297.109	85.29158
297.572	44.31387
298.034	98.71775
298.497	53.12184
298.959	67.61448
299.422	74.66385
299.884	69.85996
300.346	74.99792
300.809	106.09861
301.271	80.48525
301.733	86.10854
302.195	89.53328
302.657	72.54499
303.119	78.15797
303.581	119.70006
304.043	65.24892
304.505	76.26907
304.967	133.852
305.429	84.26732
305.891	79.75921
306.352	76.91895
306.814	134.25324
307.275	102.2476
307.737	94.67991
308.198	72.25732
308.66	77.44744
309.121	77.31621
309.583	59.6129
310.044	87.29881
310.505	55.90943
310.966	68.17802
311.428	94.93595
311.889	45.53958
312.35	174.15278
312.811	76.05377
313.272	61.53358
313.733	66.99561
314.193	-783.57777
314.654	84.72037
315.115	62.95921
315.576	55.44059
316.036	61.2874
316.497	203.13831
316.957	64.81237
317.418	34.54298
317.878	54.16312
318.339	91.35675
318.799	87.49844
319.259	73.2634
319.72	100
320.18	77.52501
320.64	70.18799
321.1	74.99687
321.56	102.77819
322.02	51.21544
322.48	41.10679
322.94	96.29591
323.4	68.91577
323.86	82.0876
324.319	46.99506
324.779	69.73365
325.239	121.92168
325.698	82.82549
326.158	102.65548
326.617	59.78919
327.077	93.10234
327.536	76.74114
327.996	95.55518
328.455	98.96888
328.914	58.9006
329.373	88.88695
329.832	64.63042
330.292	136.54361
330.751	121.25409
331.21	37.99532
331.668	100
332.127	81.6066
332.586	114.6097
333.045	59.3704
333.504	82.78343
333.962	73.68202
334.421	76.03819
334.88	53.84423
335.338	48.53858
335.797	108.452
336.255	39.39081
336.714	80.76602
337.172	92.76998
337.63	100
338.088	120.00381
338.547	91.30326
339.005	44.44047
339.463	75.22533
339.921	60.82016
340.379	70.82939
340.837	76.66347
341.295	37.10891
341.753	87.92981
342.21	58.41097
342.668	80.2053
343.126	91.3029
343.584	114.28844
344.041	29.99541
344.499	109.72375
344.956	137.50492
345.414	61.37249
345.871	63.15526
346.328	92.85567
346.786	57.42084
347.243	95.77408
347.7	24.35612
348.157	56.38449
348.614	77.26966
349.071	90.24247
349.528	66.03301
349.985	76.76417
350.442	79.64238
350.899	55.80974
351.356	93.21886
351.812	47.67016
352.269	107.89602
352.726	81.53652
353.182	36.83859
353.639	159.6252
354.095	47.85745
354.552	83.92557
355.008	74.13352
355.465	60.7426
355.921	56.78618
356.377	70.36591
356.833	66.66204
357.289	76.63171
357.745	75.4678
358.201	91.66485
358.657	79.54261
359.113	78.14723
359.569	85.08911
360.025	71.67686
360.481	104.76294
360.937	91.22535
361.392	68.20065
361.848	68.59731
362.303	51.24207
362.759	67.391
363.214	46.53307
363.67	64.91939
364.125	54.28429
364.581	62.01765
365.036	50.91605
365.491	68.46646
365.946	67.72851
366.401	63.67286
366.856	67.90852
367.311	52.51862
367.766	63.95254
368.221	62.38898
368.676	67.50671
369.131	53.13337
369.586	64.27579
370.041	56.74703
370.495	57.7372
370.95	54.79113
371.404	57.10729
371.859	58.38083
372.313	55.57906
372.768	62.68191
373.222	61.3077
373.676	55.14957
374.131	58.08598
374.585	57.01414
375.039	58.61797
375.493	55.58319
375.947	58.18374
376.401	58.68943
376.855	57.83117
377.309	58.88128
377.763	56.77557
378.217	57.28134
378.67	56.05382
379.124	58.18752
379.578	54.02614
380.031	58.12296
380.485	55.37963
380.938	57.79744
381.392	53.99514
381.845	56.07403
382.299	53.86687
382.752	54.76449
383.205	54.9415
383.658	55.40135
384.111	55.65388
384.564	55.84282
385.018	57.62006
385.471	56.23887
385.923	56.12869
386.376	55.78857
386.829	55.79827
387.282	56.32707
387.735	56.38781
388.187	57.26736
388.64	56.31005
389.093	56.19943
389.545	57.04458
389.998	56.62099
390.45	55.26493
390.902	56.40118
391.355	57.38057
391.807	56.81433
392.259	57.30578
392.711	56.42765
393.163	56.76976
393.615	56.64755
394.068	56.77725
394.519	56.65315
394.971	55.99672
395.423	57.21773
395.875	56.15275
396.327	56.51609
396.779	56.30357
397.23	56.02618
397.682	56.34785
398.133	55.95032
398.585	56.41438
399.036	56.51094
399.488	55.20748
399.939	55.98528
400.39	55.57888
400.842	54.77668
401.293	56.24867
401.744	55.53865
402.195	55.90179
402.646	54.87036
403.097	55.10374
403.548	55.18154
403.999	55.31917
404.45	54.75103
404.9	55.24804
405.351	55.01972
405.802	54.8699
406.253	54.54265
406.703	53.92895
407.154	54.48382
407.604	53.98024
408.055	53.7718
408.505	53.72343
408.955	53.50305
409.406	52.74215
409.856	52.94899
410.306	53.17731
410.756	52.99415
411.206	52.51222
411.656	52.84181
412.106	52.10908
412.556	52.14634
413.006	52.90157
413.456	51.64517
413.905	51.13917
414.355	51.21147
414.805	51.10757
415.254	51.79291
415.704	51.25357
416.153	51.08855
416.603	50.25958
417.052	50.07686
417.502	50.35231
417.951	49.49863
418.4	49.8967
418.849	50.10067
419.298	49.74114
419.748	49.37365
420.197	49.68777
420.646	48.8026
421.094	48.96943
421.543	49.3176
421.992	48.77291
422.441	48.82536
422.89	48.88389
423.338	48.62146
423.787	48.23148
424.236	47.90401
424.684	48.25546
425.133	47.90848
425.581	47.78701
426.029	47.86351
426.478	47.71795
426.926	47.69218
427.374	47.73868
427.822	47.67234
428.27	47.33384
428.718	46.85114
429.166	46.81449
429.614	46.83497
430.062	47.44114
430.51	46.05584
430.958	47.0165
431.406	46.48626
431.853	46.40475
432.301	46.45504
432.749	46.15134
433.196	46.2682
433.644	46.15722
434.091	46.21201
434.538	46.03859
434.986	46.18718
435.433	46.0387
435.88	45.92411
436.327	46.36194
436.775	45.93052
437.222	45.94876
437.669	45.68975
438.116	46.08303
438.563	45.43667
439.009	45.6817
439.456	45.94795
439.903	46.12268
440.35	45.27287
440.796	45.43742
441.243	45.45712
441.689	45.13107
442.136	45.65033
442.582	45.52551
443.029	45.29089
443.475	45.28335
443.921	45.02678
444.368	44.96087
444.814	45.48115
445.26	45.62066
445.706	45.3766
446.152	45.70001
446.598	45.51159
447.044	45.43317
447.49	45.624
447.936	45.6394
448.381	45.59905
448.827	45.79158
449.273	45.5268
449.718	45.53035
450.164	45.7678
450.61	45.35921
451.055	45.67664
451.5	45.88468
451.946	46.07499
452.391	46.12456
452.836	46.0306
453.282	45.35645
453.727	45.82965
454.172	46.06675
454.617	46.03384
455.062	45.88137
455.507	46.12936
455.952	46.31614
456.396	45.84989
456.841	46.11803
457.286	46.38862
457.731	46.48672
458.175	46.54466
458.62	46.27021
459.064	46.40615
459.509	46.47576
459.953	46.40186
460.398	47.13688
460.842	47.03849
461.286	46.64665
461.73	47.21675
462.174	47.44222
462.619	47.34107
463.063	47.26248
463.507	47.37045
463.951	47.89531
464.394	47.50205
464.838	47.81874
465.282	48.45962
465.726	48.03419
466.17	48.34093
466.613	48.18705
467.057	48.05964
467.5	48.44315
467.944	48.66681
468.387	48.77958
468.831	49.22858
469.274	49.12611
469.717	49.30536
470.16	49.94772
470.603	49.99726
471.047	50.2951
471.49	50.43793
471.933	50.5195
472.376	50.42598
472.818	50.60753
473.261	51.21362
473.704	51.22729
474.147	51.60775
474.59	51.38691
475.032	51.53625
475.475	51.78233
475.917	51.90211
476.36	52.16629
476.802	52.62225
477.245	52.71577
477.687	52.80065
478.129	53.28475
478.571	53.02349
479.013	53.55901
479.456	53.64197
479.898	53.72561
480.34	54.02444
480.782	54.30076
481.224	54.19246
481.665	54.38385
482.107	54.37802
482.549	54.45979
482.991	54.29256
483.432	54.47656
483.874	54.27729
484.315	54.73891
484.757	55.00245
485.198	55.46127
485.64	55.26233
486.081	55.52842
486.522	55.85343
486.963	55.66439
487.405	55.80693
487.846	56.12178
488.287	56.22246
488.728	56.38258
489.169	55.95531
489.61	56.514
490.05	56.2431
490.491	56.06583
490.932	56.07067
491.373	56.47621
491.813	56.50561
492.254	56.33903
492.694	56.53323
493.135	56.24143
493.575	56.83548
494.016	56.68919
494.456	57.05937
494.896	56.98169
495.336	57.63801
495.777	57.65069
496.217	57.89184
496.657	57.59787
497.097	58.00358
497.537	58.06142
497.977	58.07716
498.416	58.30883
498.856	58.08708
499.296	57.79611
499.736	58.25775
500.175	57.9583
500.615	58.41054
501.054	58.54953
501.494	58.52026
501.933	58.78327
502.373	59.01343
502.812	58.92522
503.251	59.1511
503.69	58.97052
504.129	60.00037
504.569	59.78025
505.008	59.90798
505.447	59.81018
505.886	60.73645
506.324	60.75939
506.763	60.51374
507.202	61.28453
507.641	61.32782
508.079	61.4147
508.518	61.34745
508.957	61.50943
509.395	61.66972
509.834	62.41024
510.272	62.77626
510.71	63.20875
511.149	62.96012
511.587	63.303
512.025	63.19282
512.463	63.74094
512.901	63.70634
513.339	64.38206
513.777	64.37125
514.215	64.27176
514.653	64.28264
515.091	64.78425
515.529	65.0551
515.966	65.00857
516.404	65.43356
516.842	65.55449
517.279	66.1106
517.717	65.92125
518.154	66.38126
518.592	66.33817
519.029	66.457
519.466	66.20632
519.904	66.84709
520.341	67.15661
520.778	67.54614
521.215	68.08706
521.652	68.41515
522.089	68.65301
522.526	68.52311
522.963	69.05025
523.399	69.34838
523.836	69.42468
524.273	69.84941
524.71	70.32742
525.146	69.92119
525.583	70.80497
526.019	70.42637
526.456	70.30002
526.892	70.78311
527.328	70.78518
527.765	71.36758
528.201	71.1202
528.637	72.05913
529.073	71.9789
529.509	72.24876
529.945	72.78699
530.381	72.88662
530.817	72.64103
531.253	72.66976
531.689	73.24718
532.124	73.05541
532.56	73.53335
532.996	73.17536
533.431	73.20576
533.867	73.29368
534.302	73.66162
534.738	73.88983
535.173	74.08377
535.608	74.68916
536.044	74.44409
536.479	74.53029
536.914	74.48665
537.349	74.60969
537.784	74.50108
538.219	75.22949
538.654	75.07466
539.089	75.11913
539.524	74.50208
539.959	75.08917
540.393	75.23451
540.828	75.7344
541.263	75.31536
541.697	75.92287
542.132	75.75829
542.566	76.10635
543.001	75.69229
543.435	75.78462
543.869	75.79112
544.303	75.64747
544.738	75.93721
545.172	75.8777
545.606	76.07698
546.04	75.78311
546.474	76.14784
546.908	75.50708
547.342	75.91028
547.775	75.99777
548.209	75.94519
548.643	75.50899
549.077	76.24029
549.51	76.11048
549.944	75.91463
550.377	75.47403
550.811	76.08658
551.244	74.96317
551.677	74.99471
552.111	74.86586
552.544	74.72521
552.977	74.98147
553.41	74.69539
553.843	74.6821
554.276	74.57231
554.709	74.26576
555.142	74.25794
555.575	74.04521
556.008	73.94416
556.44	72.9616
556.873	73.08732
557.306	72.73495
557.738	72.47612
558.171	72.91648
558.603	72.94208
559.036	72.68135
559.468	71.60654
559.9	72.05505
560.333	71.34988
560.765	71.35792
561.197	70.59827
561.629	70.75345
562.061	70.56022
562.493	69.74865
562.925	70.10336
563.357	69.87812
563.789	69.82508
564.22	69.97427
564.652	69.29167
565.084	69.32305
565.515	69.19802
565.947	68.21635
566.378	68.07738
566.81	67.96541
567.241	67.68992
567.672	67.91037
568.104	67.51511
568.535	66.55694
568.966	66.78898
569.397	66.34198
569.828	65.91971
570.259	66.2783
570.69	65.11836
571.121	65.16877
571.552	65.69654
571.983	64.58403
572.414	64.5864
572.844	64.43477
573.275	64.7854
573.705	64.31812
574.136	63.92885
574.566	63.98588
574.997	63.92559
575.427	63.78728
575.857	63.71967
576.288	62.51559
576.718	63.13439
577.148	62.58294
577.578	62.00923
578.008	62.25009
578.438	61.94943
578.868	61.65396
579.298	61.29516
579.728	60.91015
580.157	60.25245
580.587	60.01601
581.017	59.94794
581.446	59.58836
581.876	59.36096
582.305	59.02086
582.735	58.96848
583.164	58.50439
583.593	57.72497
584.023	58.21022
584.452	57.70634
584.881	57.36113
585.31	57.1147
585.739	57.63597
586.168	57.38588
586.597	56.92242
587.026	57.35307
587.455	57.27888
587.884	57.03672
588.312	56.78513
588.741	56.20984
589.17	56.78792
589.598	56.61835
590.027	56.42605
590.455	55.56547
590.884	55.37047
591.312	55.12013
591.74	55.15299
592.168	55.09138
592.597	54.66634
593.025	54.69763
593.453	54.24744
593.881	53.99312
594.309	53.52905
594.737	53.48012
595.165	53.1442
595.592	52.94907
596.02	53.03099
596.448	52.7869
596.875	52.8291
597.303	52.54788
597.73	52.29994
598.158	51.79884
598.585	51.96317
599.013	51.35133
599.44	51.49794
599.867	51.19872
600.294	51.10109
600.722	51.32214
601.149	51.40608
601.576	51.15556
602.003	51.28674
602.43	51.19707
602.856	50.73669
603.283	51.24521
603.71	50.62528
604.137	50.6533
604.563	50.42934
604.99	49.91315
605.416	49.80717
605.843	49.43276
606.269	49.21574
606.696	49.52192
607.122	49.39397
607.548	49.24059
607.975	49.29921
608.401	49.33181
608.827	49.16526
609.253	48.95456
609.679	48.93951
610.105	48.31309
610.531	48.26526
610.956	48.26705
611.382	48.04785
611.808	48.17164
612.234	48.37804
612.659	48.14206
613.085	48.21078
613.51	48.38397
613.936	48.10484
614.361	47.72713
614.786	47.81064
615.212	47.3879
615.637	47.60435
616.062	47.27328
616.487	47.45595
616.912	47.52312
617.337	47.44139
617.762	47.50757
618.187	46.88882
618.612	47.02285
619.037	46.87639
619.461	46.97425
619.886	46.56945
620.311	46.63143
620.735	46.86781
621.16	46.71573
621.584	46.6139
622.008	46.88727
622.433	46.78686
622.857	46.63692
623.281	46.94323
623.705	46.69359
624.13	46.70776
624.554	46.69735
624.978	46.68545
625.402	46.62577
625.826	46.55058
626.249	46.69705
626.673	46.31423
627.097	46.74225
627.521	46.39404
627.944	46.595
628.368	46.55983
628.791	46.74282
629.215	46.74708
629.638	46.4587
630.061	46.74432
630.485	46.48747
630.908	46.85652
631.331	46.79626
631.754	47.02575
632.177	46.95933
632.6	46.69671
633.023	46.94299
633.446	47.06345
633.869	47.24764
634.292	47.90651
634.715	47.6716
635.137	47.7644
635.56	47.81278
635.982	48.39268
636.405	47.93104
636.827	48.30828
637.25	48.33396
637.672	48.51359
638.094	48.10837
638.517	48.72661
638.939	48.70189
639.361	48.55843
639.783	49.33708
640.205	49.15613
640.627	49.33927
641.049	49.41991
641.471	49.81191
641.893	49.50404
642.314	49.97852
642.736	49.76046
643.158	49.94356
643.579	50.52256
644.001	49.80565
644.422	49.78769
644.844	50.20185
645.265	50.37532
645.686	50.56221
646.107	50.44116
646.529	50.75832
646.95	50.89119
647.371	50.85008
647.792	51.36235
648.213	51.34671
648.634	51.92473
649.055	51.66027
649.475	52.17738
649.896	51.56898
650.317	52.00603
650.737	52.46586
651.158	52.40476
651.578	53.05069
651.999	53.12061
652.419	51.91942
652.84	53.75349
653.26	53.10191
653.68	54.08237
654.1	54.22162
654.521	54.24584
654.941	54.22645
655.361	54.16127
655.781	54.739
656.2	55.34068
656.62	55.50833
657.04	55.73708
657.46	55.26009
657.879	55.01278
658.299	55.90058
658.719	56.2951
659.138	55.53447
659.558	56.32167
659.977	55.64123
660.396	56.24756
660.816	56.49549
661.235	56.61743
661.654	56.45609
662.073	57.49072
662.492	57.29065
662.911	57.97338
663.33	57.53161
663.749	57.57293
664.168	57.27504
664.587	57.75521
665.006	57.87785
665.424	58.33296
665.843	59.05301
666.261	58.56549
666.68	58.90995
667.098	59.10668
667.517	59.35465
667.935	59.08014
668.353	59.51398
668.772	59.61275
669.19	59.54237
669.608	59.36958
670.026	59.84721
670.444	59.80974
670.862	59.57959
671.28	59.77708
671.698	59.45168
672.115	59.86813
672.533	60.30222
672.951	60.10907
673.368	60.19908
673.786	59.57764
674.203	60.06083
674.621	59.52979
675.038	59.58781
675.456	60.20186
675.873	59.85892
676.29	59.83878
676.707	59.63238
677.124	59.29923
677.541	59.31959
677.958	58.81073
678.375	60.00878
678.792	59.5071
679.209	59.54764
679.626	60.056
680.043	60.07297
680.459	60.21368
680.876	59.79282
681.292	59.73897
681.709	59.39758
682.125	59.36208
682.542	59.02752
682.958	58.96185
683.374	59.44435
683.79	59.29639
684.207	59.27438
684.623	59.0456
685.039	58.69545
685.455	58.96288
685.871	58.46297
686.286	58.90962
686.702	58.14139
687.118	58.44676
687.534	58.36659
687.949	58.32673
688.365	58.25027
688.781	57.38851
689.196	57.3871
689.611	57.2163
690.027	57.71189
690.442	56.71154
690.857	57.1984
691.273	57.16094
691.688	56.21886
692.103	56.53153
692.518	56.11558
692.933	56.22027
693.348	55.42586
693.763	55.87202
694.177	55.16899
694.592	55.5891
695.007	55.20696
695.421	54.95374
695.836	54.9485
696.25	54.46669
696.665	53.87209
697.079	53.80483
697.494	53.42695
697.908	52.76159
698.322	53.50641
698.736	52.54293
699.151	52.96796
699.565	51.79307
699.979	52.39144
700.393	51.99373
700.806	51.85619
701.22	51.76663
701.634	51.55353
702.048	51.56503
702.461	51.0051
702.875	50.61135
703.289	50.47775
703.702	50.17901
704.116	49.88175
704.529	49.71242
704.942	49.26368
705.356	49.50555
705.769	48.88155
706.182	48.17614
706.595	47.60458
707.008	47.594
707.421	47.1699
707.834	47.08935
708.247	47.04416
708.66	46.98359
709.072	46.67733
709.485	45.63519
709.898	46.12027
710.31	45.46661
710.723	45.66953
711.135	44.58365
711.548	44.73377
711.96	43.98932
712.373	44.36552
712.785	43.42948
713.197	43.93483
713.609	43.08155
714.021	42.88729
714.433	42.62653
714.845	42.41835
715.257	41.66818
715.669	41.83225
716.081	41.20364
716.493	41.20945
716.904	41.14598
717.316	40.6403
717.727	40.35698
718.139	40.05294
718.55	39.93956
718.962	39.62716
719.373	39.44926
719.784	38.98933
720.196	39.19843
720.607	39.12084
721.018	38.53774
721.429	38.11236
721.84	38.28103
722.251	37.27888
722.662	37.49266
723.073	37.23648
723.483	37.1759
723.894	36.55004
724.305	36.43766
724.715	36.40066
725.126	36.10633
725.536	35.64068
725.947	35.64698
726.357	35.24162
726.768	35.12478
727.178	35.02384
727.588	34.77956
727.998	34.33388
728.408	33.93344
728.818	34.40318
729.228	33.50838
729.638	33.8253
730.048	33.39789
730.458	33.53867
730.868	33.1783
731.277	32.91571
731.687	32.76648
732.097	32.91783
732.506	32.23433
732.916	32.55232
733.325	31.53627
733.734	31.9265
734.144	31.25087
734.553	31.50908
734.962	30.86282
735.371	30.75239
735.78	30.54161
736.189	30.75651
736.598	30.37668
737.007	30.98257
737.416	29.60525
737.825	30.1951
738.233	29.65024
738.642	29.98979
739.051	29.48786
739.459	29.73718
739.868	29.28898
740.276	29.30742
740.684	29.29505
741.093	28.70699
741.501	28.88699
741.909	28.23242
742.317	28.49734
742.725	28.23546
743.133	28.11701
743.541	28.02395
743.949	28.18346
744.357	27.61302
744.765	28.01219
745.173	27.20682
745.58	27.60644
745.988	27.05027
746.396	27.13755
746.803	27.0455
747.211	26.97045
747.618	26.82611
748.025	26.41477
748.433	26.83971
748.84	26.48284
749.247	26.94151
749.654	26.16385
750.061	26.29468
750.468	26.07097
750.875	26.48817
751.282	25.88074
751.689	26.31251
752.096	25.77875
752.502	26.07608
752.909	25.97369
753.316	25.89537
753.722	25.75774
754.129	25.35211
754.535	25.73778
754.941	25.12966
755.348	25.52357
755.754	25.41781
756.16	25.47387
756.566	25.19012
756.972	25.20584
757.378	25.10936
757.784	25.00024
758.19	25.20201
758.596	24.56407
759.002	25.05181
759.408	24.64029
759.813	24.79055
760.219	24.47482
760.624	24.6722
761.03	24.5832
761.435	24.43244
761.841	24.55054
762.246	23.85123
762.651	24.35305
763.057	23.76456
763.462	24.5667
763.867	23.95002
764.272	24.88032
764.677	24.49257
765.082	24.71677
765.487	24.7373
765.892	24.27782
766.296	24.59749
766.701	23.9085
767.106	24.5723
767.51	23.9063
767.915	24.24257
768.319	24.01693
768.724	23.91121
769.128	23.82274
769.532	23.36983
769.936	24.24737
770.341	23.4343
770.745	23.82183
771.149	22.95208
771.553	23.4191
771.957	23.33344
772.361	22.96907
772.764	23.96346
773.168	22.94511
773.572	23.4062
773.976	23.50393
774.379	23.28737
774.783	23.28572
775.186	22.90721
775.59	23.64229
775.993	22.95102
776.396	24.10942
776.8	22.86206
777.203	23.49762
777.606	23.44012
778.009	23.06418
778.412	23.46483
778.815	22.8867
779.218	23.43033
779.621	23.04861
780.023	23.30465
780.426	23.59361
780.829	23.62462
781.231	24.14226
781.634	22.78028
782.036	23.60129
782.439	22.89375
782.841	23.52065
783.244	23.58167
783.646	22.71807
784.048	23.7059
784.45	23.39971
784.852	23.46167
785.254	23.13414
785.656	22.9709
786.058	23.38882
786.46	22.97696
786.862	23.17722
787.264	22.66482
787.665	22.92081
788.067	23.07201
788.468	22.65311
788.87	23.11513
789.271	22.85957
789.673	22.88616
790.074	23.14203
790.475	22.93112
790.877	23.56314
791.278	22.87936
791.679	23.33116
792.08	23.27653
792.481	23.28387
792.882	23.47254
793.283	22.51782
793.683	23.01862
794.084	22.97782
794.485	22.89857
794.886	23.262
795.286	22.6872
795.687	22.81927
796.087	22.47645
796.487	22.81518
796.888	23.04403
797.288	22.36085
797.688	22.908
798.088	23.0021
798.489	22.84806
798.889	23.32157
799.289	22.41058
799.689	22.59806
800.088	22.98322
800.488	22.83324
800.888	22.96612
801.288	23.03612
801.687	23.62762
802.087	22.93982
802.486	23.11608
802.886	23.44223
803.285	23.3098
803.685	23.84633
804.084	23.2811
804.483	23.75556
804.882	24.26758
805.281	23.46309
805.68	24.05594
806.079	23.92357
806.478	23.75117
806.877	24.04309
807.276	23.5166
807.675	23.9461
808.074	23.92637
808.472	23.84248
808.871	23.97922
809.269	23.42419
809.668	23.9729
810.066	23.68233
810.465	24.07524
810.863	24.15394
811.261	24.06653
811.659	23.88012
812.057	23.94651
812.455	23.98141
812.853	24.55827
813.251	24.00202
813.649	23.70631
814.047	24.51326
814.445	23.51132
814.843	23.8003
815.24	23.96217
815.638	23.78881
816.035	24.22855
816.433	24.05122
816.83	24.08557
817.228	24.05003
817.625	23.56829
818.022	24.01066
818.419	23.93833
818.816	23.7631
819.213	24.32183
819.61	23.71533
820.007	24.31992
820.404	24.68153
820.801	24.06626
821.198	25.01681
821.595	24.54257
821.991	24.34889
822.388	25.04351
822.784	24.67027
823.181	25.0644
823.577	25.34528
823.974	25.0252
824.37	25.26649
824.766	25.23384
825.162	24.59243
825.558	25.19009
825.954	24.45529
826.35	24.57896
826.746	25.51156
827.142	25.00839
827.538	25.33403
827.934	25.53813
828.33	25.03327
828.725	25.53039
829.121	25.19095
829.516	24.83092
829.912	25.10488
830.307	24.31646
830.703	24.91384
831.098	24.68839
831.493	24.57235
831.888	25.12283
832.283	24.53805
832.678	24.60675
833.073	25.52387
833.468	25.0786
833.863	24.91329
834.258	25.37458
834.653	24.98085
835.048	25.44062
835.442	25.38577
835.837	24.89266
836.231	25.37522
836.626	25.24492
837.02	24.8468
837.415	26.1759
837.809	25.4397
838.203	25.5178
838.597	26.01938
838.991	24.67372
839.385	24.89009
839.779	25.68394
840.173	24.67939
840.567	25.5533
840.961	25.71975
841.355	25.44299
841.748	25.61023
842.142	25.76476
842.536	25.27221
842.929	25.72553
843.323	25.93188
843.716	25.82155
844.109	25.94836
844.503	25.76295
844.896	25.80149
845.289	26.46109
845.682	26.60025
846.075	26.8438
846.468	26.35127
846.861	25.91735
847.254	25.26743
847.647	26.1616
848.04	25.74014
848.432	26.50444
848.825	25.36661
849.217	25.59258
849.61	27.07041
850.002	25.90099
850.395	26.16523
850.787	26.01029
851.179	25.96206
851.572	25.0846
851.964	26.11911
852.356	25.76777
852.748	25.58046
853.14	26.87585
853.532	26.00944
853.924	26.41146
854.315	25.97341
854.707	26.57035
855.099	26.08363
855.491	27.05387
855.882	25.45758
856.274	26.95036
856.665	26.369
857.056	25.67763
857.448	25.2345
857.839	26.61074
858.23	24.71233
858.621	26.11307
859.012	26.18938
859.403	24.71126
859.794	26.28859
860.185	26.05054
860.576	26.16755
860.967	25.82715
861.358	26.23619
861.748	24.91638
862.139	24.97657
862.529	26.05791
862.92	25.44591
863.31	25.5824
863.701	26.23712
864.091	25.5923
864.481	25.20685
864.872	25.87468
865.262	25.72626
865.652	26.09395
866.042	25.7402
866.432	24.84203
866.822	26.41793
867.211	25.53344
867.601	25.5983
867.991	25.28308
868.381	25.49254
868.77	24.89183
869.16	25.2493
869.549	25.76873
869.939	24.80805
870.328	25.84202
870.717	25.27104
871.106	25.14752
871.496	25.33015
871.885	24.87625
872.274	25.01856
872.663	25.01937
873.052	25.38178
873.441	25.14924
873.829	25.68446
874.218	25.3192
874.607	25.15224
874.996	25.55578
875.384	25.60848
875.773	25.05789
876.161	25.6757
876.549	25.48046
876.938	25.85508
877.326	25.41305
877.714	25.41914
878.102	24.67009
878.491	24.63673
878.879	25.63838
879.267	24.91097
879.655	24.70643
880.042	25.51435
880.43	25.23786
880.818	24.89356
881.206	25.70413
881.593	25.46866
881.981	25.08202
882.368	25.47821
882.756	25.7769
883.143	25.38278
883.53	25.33062
883.918	25.69761
884.305	25.12871
884.692	25.41588
885.079	25.21195
885.466	24.79315
885.853	25.06905
886.24	25.51558
886.627	24.81127
887.014	24.6899
887.4	25.35989
887.787	25.09282
888.174	24.89123
888.56	25.2474
888.947	24.87885
889.333	24.53999
889.719	25.77127
890.106	25.22908
890.492	24.5708
890.878	24.66244
891.264	25.20086
891.65	24.99719
892.036	24.96383
892.422	24.86101
892.808	24.67595
893.194	24.37495
893.58	24.9347
893.965	24.50165
894.351	24.21144
894.736	24.96373
895.122	24.78675
895.507	24.11736
895.893	24.45108
896.278	24.72036
896.663	24.25117
897.049	24.68846
897.434	24.65794
897.819	24.72256
898.204	24.74148
898.589	25.28316
898.974	24.67792
899.359	24.62539
899.743	25.54992
900.128	24.80273
900.513	25.49445
900.897	25.02934
901.282	24.5687
901.667	24.63983
902.051	23.76264
902.435	24.89321
902.82	24.4416
903.204	23.9333
903.588	24.38308
903.972	24.63511
904.356	24.31477
904.74	23.88438
905.124	24.78495
905.508	24.52873
905.892	24.97571
906.276	24.81825
906.659	24.70773
907.043	24.44865
907.427	25.2395
907.81	24.96027
908.194	24.86383
908.577	24.54146
908.96	25.25855
909.344	24.60163
909.727	23.8411
910.11	24.67653
910.493	24.25536
910.876	23.86067
911.259	24.78485
911.642	24.24237
912.025	23.2159
912.408	23.79267
912.79	24.04826
913.173	23.6464
913.556	23.21408
913.938	23.68367
914.321	23.80662
914.703	22.75587
915.086	23.17997
915.468	23.62613
915.85	23.23773
916.232	23.58165
916.614	23.47248
916.996	23.73911
917.378	23.57949
917.76	23.54928
918.142	24.19925
918.524	24.32409
918.906	23.71708
919.288	25.42
919.669	24.32807
920.051	23.95021
920.432	24.33999
920.814	24.37272
921.195	24.81805
921.577	23.83282
921.958	24.466
922.339	25.25258
922.72	24.02695
923.101	24.08894
923.482	24.93046
923.863	24.7886
924.244	24.21897
924.625	24.69809
925.006	25.30128
925.387	24.85689
925.767	24.78474
926.148	25.2087
926.528	24.51266
926.909	23.72936
927.289	24.94411
927.67	24.04497
928.05	23.69752
928.43	24.40453
928.81	24.56056
929.191	24.62155
929.571	24.22391
929.951	23.84509
930.331	23.63623
930.71	23.51871
931.09	23.19002
931.47	25.43058
931.85	24.78859
932.229	23.93288
932.609	24.70574
932.988	24.14059
933.368	23.84477
933.747	23.91598
934.127	24.90837
934.506	25.10248
934.885	23.28014
935.264	24.95464
935.643	24.02575
936.022	24.59587
936.401	23.26402
936.78	23.90481
937.159	24.80628
937.538	23.01096
937.916	23.76896
938.295	24.31175
938.674	23.22585
939.052	25.39517
939.431	23.9977
939.809	24.39338
940.187	23.78945
940.566	24.24614
940.944	24.57266
941.322	23.72669
941.7	24.16724
942.078	24.98284
942.456	23.80953
942.834	23.93541
943.212	24.35793
943.59	23.84462
943.968	24.12957
944.345	24.73463
944.723	23.88241
945.1	23.71446
945.478	24.83254
945.855	25.21695
946.233	23.61534
946.61	25.43248
946.987	23.80544
947.365	24.22968
947.742	24.46365
948.119	23.51976
948.496	23.08728
948.873	24.92359
949.25	23.20843
949.626	24.46546
950.003	24.07844
950.38	23.13479
950.756	25.27963
951.133	25.76178
951.51	24.18469
951.886	24.12891
952.262	23.2596
952.639	24.96176
953.015	24.44953
953.391	23.65318
953.767	24.8403
954.143	22.84048
954.519	23.58511
954.895	23.81533
955.271	22.35285
955.647	23.11536
956.023	24.07194
956.399	22.94467
956.774	24.31892
957.15	24.22693
957.525	24.28253
957.901	23.09954
958.276	23.25215
958.652	20.85671
959.027	24.51004
959.402	22.81661
959.777	22.93188
960.152	22.35732
960.527	23.11304
960.902	22.52447
961.277	20.78415
961.652	22.26015
962.027	24.21258
962.402	20.50086
962.776	23.6223
963.151	21.04386
963.525	22.66173
963.9	22.1889
964.274	22.64238
964.649	21.361
965.023	23.85039
965.397	24.26414
965.771	21.72951
966.146	19.51648
966.52	21.08582
966.894	23.70922
967.268	20.55142
967.641	22.85858
968.015	22.37171
968.389	22.80116
968.763	21.46306
969.136	22.82552
969.51	22.03961
969.883	21.73682
970.257	22.95375
970.63	23.97488
971.003	21.96089
971.377	23.3604
971.75	21.35663
972.123	21.36977
972.496	22.43253
972.869	21.25964
973.242	22.4612
973.615	23.4285
973.988	22.99675
974.36	22.64289
974.733	22.61697
975.106	21.65199
975.478	22.94068
975.851	21.50247
976.223	21.22272
976.596	20.51669
976.968	22.84922
977.34	22.80107
977.712	21.52346
978.085	20.7188
978.457	21.42376
978.829	21.9925
979.201	21.77884
979.573	20.55557
979.944	20.89063
980.316	20.48125
980.688	22.79731
981.059	21.3962
981.431	22.7416
981.803	21.33471
982.174	22.11148
982.545	21.19803
982.917	22.55372
983.288	21.51543
983.659	23.25436
984.03	22.17123
984.401	20.94242
984.772	22.37347
985.143	21.04137
985.514	22.89138
985.885	20.36121
986.256	23.26938
986.627	22.32582
986.997	20.82891
987.368	21.7863
987.738	21.74727
988.109	21.40191
988.479	21.3149
988.85	20.88835
989.22	21.96898
989.59	21.71172
989.96	19.98804
990.33	20.84951
990.7	20.13795
991.07	19.06969
991.44	18.75705
991.81	19.42838
992.18	20.18871
992.549	19.27178
992.919	20.00875
993.289	19.37466
993.658	20.20325
994.028	21.09133
994.397	19.39986
994.766	20.44215
995.136	21.50128
995.505	21.34516
995.874	20.3572
996.243	20.38178
996.612	20.02268
996.981	22.09082
997.35	21.81375
997.719	21.33279
998.088	22.106
998.456	21.21363
998.825	21.05305
999.194	21.33303
999.562	22.60893
999.931	20.69113
1000.299	20.06117
1000.667	21.00592
1001.036	20.3912
1001.404	22.17245
1001.772	21.37038
1002.14	21.6498
1002.508	19.81625
1002.876	23.55392
1003.244	25.23964
1003.612	20.55885
1003.98	21.83735
1004.347	22.82357
1004.715	21.11308
1005.083	20.2433
1005.45	19.21097
1005.818	22.12768
1006.185	23.08255
1006.552	23.98942
1006.92	19.17065
1007.287	18.5618
1007.654	19.5273
1008.021	24.18583
1008.388	24.3734
1008.755	26.86246
1009.122	20.19176
1009.489	20.9519
1009.856	16.20693
1010.222	20.49568
1010.589	26.12831
1010.956	23.37764
1011.322	23.94875
1011.689	19.07162
1012.055	23.02457
1012.421	20.85007
1012.788	20.69849
1013.154	18.78432
1013.52	20.29091
1013.886	24.4056
1014.252	23.37538
1014.618	21.40827
1014.984	18.57059
1015.35	22.08821
1015.716	20.89708
1016.081	22.13425
1016.447	21.24279
1016.813	24.5695
1017.178	29.59219
1017.544	19.8296
1017.909	25.15899
1018.274	26.62423
1018.64	24.99588
1019.005	24.32524
1019.37	21.63303
1019.735	24.42025
1020.1	25.03054
1020.465	18.24957
1020.83	25.5475
1021.195	25.65493
1021.56	28.89281
1021.924	30.53395
1022.289	22.13047
1022.654	26.59101
1023.018	23.74078
1023.383	30.36511
1023.747	28.08022
1024.111	25.95723
1024.476	27.95637
1024.84	30.50252
1025.204	25.21567
1025.568	27.82001
1025.932	22.88688
1026.296	19.20007
1026.66	30.36295
1027.024	24.67591
1027.387	26.53129
1027.751	17.9692
1028.115	34.40953
1028.478	31.69228
1028.842	28.06109
1029.205	25.82235
1029.569	20.12343
1029.932	28.28993
1030.295	27.73506
1030.659	29.22797
1031.022	21.01349
1031.385	27.57021
1031.748	29.51183
1032.111	21.13106
1032.474	30.10662
1032.836	21.00198
1033.199	37.65815
1033.562	33.31727
1033.924	26.55794
1034.287	22.8981
1034.65	25.70547
1035.012	29.67715
1035.374	21.18298
1035.737	25.98145
1036.099	24.77108
1036.461	28.33603
1036.823	18.26731
1037.185	26.03317
1037.547	27.06423
1037.909	24.17654
1038.271	31.09007
1038.633	30.10033
1038.995	43.3358
1039.356	38.49965
1039.718	36.47293
1040.08	26.9883
1040.441	39.57659
1040.803	33.19592
1041.164	26.36314
1041.525	17.51745
1041.886	30.69524
1042.248	23.98917
1042.609	47.25299
1042.97	28.91717
1043.331	32.8295
1043.692	27.57587
1044.053	42.97139
1044.413	38.96442
1044.774	28.0792
1045.135	19.36582
1045.495	54.15489
1045.856	30.87372
1046.216	29.78977
1046.577	27.09442
1046.937	23.40734
1047.298	28.8902
