Data from 1016water_Reflection__1__20-39-32-594.txt Node

Date: Thu Oct 16 20:39:32 AST 2025
User: lin
Spectrometer: SR600411
Trigger mode: 0
Integration Time (sec): 5.601500E-2
Scans to average: 5
Nonlinearity correction enabled: true
Boxcar width: 0
Storing dark spectrum: false
XAxis mode: Wavelengths
Number of Pixels in Spectrum: 2048
>>>>>Begin Spectral Data<<<<<
187.982	62.18576
188.456	53.41026
188.93	53.69041
189.403	54.06717
189.877	62.15009
190.351	47.15027
190.825	57.33976
191.298	41.18801
191.772	68.71393
192.246	60.98449
192.719	49.0881
193.193	48.47505
193.666	56.5843
194.139	61.49061
194.613	54.3984
195.086	75.91616
195.559	54.86006
196.033	60.42095
196.506	66.06166
196.979	53.78704
197.452	63.43989
197.925	55.61514
198.398	57.77775
198.871	57.04849
199.344	55.754
199.816	44.32147
200.289	59.69898
200.762	46.26908
201.235	53.94922
201.707	61.94165
202.18	53.4799
202.652	59.87229
203.125	49.99316
203.597	56.28404
204.07	77.45067
204.542	53.362
205.014	32.21443
205.486	66.12078
205.959	57.53324
206.431	36.46279
206.903	60.1281
207.375	46.91666
207.847	47.17608
208.319	55.55027
208.791	4.28458
209.263	68.41699
209.734	50.73963
210.206	69.60357
210.678	63.19423
211.15	53.77565
211.621	14.81144
212.093	66.8854
212.564	37.95792
213.036	57.40217
213.507	38.94289
213.979	48.1684
214.45	56.72571
214.921	71.42404
215.392	52.24676
215.864	54.62432
216.335	75.3682
216.806	52.02644
217.277	91.20734
217.748	49.99375
218.219	64.28189
218.69	69.53008
219.161	46.66223
219.631	42.97692
220.102	64.82103
220.573	44.62217
221.043	49.99524
221.514	54.63441
221.985	49.49004
222.455	40.76301
222.926	46.66148
223.396	39.41815
223.866	62.2894
224.337	50.97534
224.807	40.90382
225.277	65.42847
225.747	66.90579
226.217	53.0378
226.687	75.3682
227.157	44.04352
227.627	32.09527
228.097	57.25928
228.567	35.91763
229.037	19.22757
229.507	63.20266
229.977	65.28382
230.446	57.79289
230.916	27.67413
231.386	8.98732
231.855	31.92765
232.325	37.49442
232.794	56.19245
233.263	40.763
233.733	63.77371
234.202	43.32895
234.671	49.47972
235.14	32.04791
235.61	47.45179
236.079	-11.11001
236.548	64.36386
237.017	43.2146
237.486	39.161
237.955	68.35104
238.424	42.85272
238.892	71.29191
239.361	59.77822
239.83	50.81363
240.299	52.23218
240.767	55.80975
241.236	68.26476
241.704	43.35733
242.173	24.99703
242.641	26.74085
243.109	78.01888
243.578	53.72804
244.046	89.9063
244.514	69.65919
244.982	41.66088
245.451	78.87089
245.919	22.3658
246.387	42.21786
246.855	76.74114
247.323	74.7984
247.791	69.22748
248.258	36.62901
248.726	1.38869
249.194	50.88731
249.662	55.2206
250.129	21.92595
250.597	65.51205
251.064	49.99494
251.532	59.08458
251.999	40.34544
252.467	109.3763
252.934	51.88155
253.401	91.48791
253.869	27.15732
254.336	45.87817
254.803	71.42461
255.27	53.65449
255.737	16.46827
256.204	58.64885
256.671	43.00623
257.138	38.8855
257.605	52.82757
258.072	48.4551
258.539	33.976
259.005	32.42922
259.472	29.06625
259.939	67.34266
260.405	72.54701
260.872	53.74606
261.338	18.09215
261.805	6.45013
262.271	54.09235
262.737	26.91902
263.203	48.44881
263.67	76.28518
264.136	32.18014
264.602	51.27819
265.068	84.88153
265.534	40.81163
266	51.01555
266.466	35.34905
266.932	73.25247
267.398	53.71304
267.864	33.58809
268.329	46.22119
268.795	47.89327
269.261	35.61312
269.726	48.60754
270.192	41.6603
270.657	55.16672
271.123	32.13801
271.588	63.03923
272.053	49.27194
272.519	60.6239
272.984	-6.153
273.449	106.66751
273.914	43.99512
274.379	62.62166
274.844	34.90088
275.309	41.75385
275.774	56.43072
276.239	57.97745
276.704	57.65228
277.169	16.66435
277.634	38.13979
278.098	61.61152
278.563	44.94878
279.028	49.40755
279.492	67.23631
279.957	35.22329
280.421	64.51332
280.886	45.53958
281.35	45.53958
281.814	67.85472
282.279	41.53533
282.743	71.01167
283.207	45.53021
283.671	71.30652
284.135	26.39518
284.599	54.36387
285.063	66.34155
285.527	30.37643
285.991	57.77342
286.455	41.17239
286.919	62.85228
287.382	42.72937
287.846	54.99509
288.31	90.12203
288.773	37.49665
289.237	52.69904
289.7	57.54203
290.164	73.07287
290.627	24.99717
291.09	34.64893
291.554	67.02898
292.017	70.70301
292.48	50.46198
292.943	36.18567
293.406	65.0565
293.869	41.37513
294.332	54.71177
294.795	39.50234
295.258	62.13112
295.721	67.95672
296.184	88.13437
296.646	43.58594
297.109	64.86152
297.572	72.61573
298.034	48.48158
298.497	57.97745
298.959	59.60794
299.422	97.05844
299.884	57.93876
300.346	40.22574
300.809	23.87818
301.271	48.97473
301.733	76.46816
302.195	44.57425
302.657	47.91192
303.119	27.27013
303.581	40.65499
304.043	39.02052
304.505	61.85113
304.967	25.52837
305.429	40.29211
305.891	39.05948
306.352	14.49106
306.814	49.99643
307.275	83.0492
307.737	-18.96292
308.198	73.27736
308.66	38.09131
309.121	19.71608
309.583	51.99629
310.044	18.83849
310.505	59.42889
310.966	38.26781
311.428	47.61489
311.889	43.11396
312.35	30.42996
312.811	34.87791
313.272	90.19519
313.733	59.20689
314.193	10.21817
314.654	24.72775
315.115	76.40131
315.576	45.67503
316.036	79.5669
316.497	54.4265
316.957	69.08625
317.418	33.33135
317.878	29.05505
318.339	74.68058
318.799	53.63094
319.259	62.90036
319.72	22.8547
320.18	65.17353
320.64	125.00446
321.1	26.13299
321.56	64.64198
322.02	50.95638
322.48	78.20249
322.94	37.92697
323.4	53.18685
323.86	58.92319
324.319	51.38532
324.779	79.68545
325.239	29.72513
325.698	88.31011
326.158	74.07099
326.617	90.62392
327.077	23.7267
327.536	31.24659
327.996	62.06626
328.455	30.58466
328.914	61.62387
329.373	47.99629
329.832	45.8286
330.292	111.59597
330.751	102.53205
331.21	43.42952
331.668	57.96768
332.127	92.30659
332.586	70.83137
333.045	57.72726
333.504	39.84331
333.962	23.07509
334.421	76.46816
334.88	14.75258
335.338	66.3504
335.797	10.66525
336.255	48.64498
336.714	62.8169
337.172	58.81781
337.63	15.68494
338.088	52.10916
338.547	59.03217
339.005	21.68395
339.463	76.57263
339.921	75.55226
340.379	81.47906
340.837	80.43191
341.295	37.09391
341.753	54.78736
342.21	44.44048
342.668	67.06958
343.126	12.98529
343.584	42.33697
344.041	56.30566
344.499	44.94879
344.956	62.49628
345.414	54.83415
345.871	61.75993
346.328	46.83155
346.786	67.7915
347.243	58.75823
347.7	52.23549
348.157	64.80993
348.614	61.24623
349.071	61.69552
349.528	57.40217
349.985	62.92567
350.442	56.47622
350.899	68.47432
351.356	90.36001
351.812	39.63437
352.269	84.40082
352.726	30.86077
353.182	59.25538
353.639	58.55322
354.095	40.22573
354.552	29.24094
355.008	59.83026
355.465	64.35185
355.921	47.61281
356.377	79.60834
356.833	39.07636
357.289	69.56039
357.745	85.05528
358.201	36.16376
358.657	42.85136
359.113	91.75112
359.569	51.258
360.025	59.73292
360.481	39.40959
360.937	62.02336
361.392	51.16805
361.848	82.83548
362.303	51.13855
362.759	51.3422
363.214	50.80165
363.67	57.13268
364.125	51.14099
364.581	52.34966
365.036	48.24951
365.491	51.94343
365.946	47.15413
366.401	62.12262
366.856	51.03459
367.311	53.48363
367.766	58.18963
368.221	52.008
368.676	54.86268
369.131	54.14432
369.586	51.02832
370.041	53.63984
370.495	52.26688
370.95	55.05724
371.404	56.02183
371.859	53.2203
372.313	54.86357
372.768	52.29437
373.222	50.50262
373.676	51.44977
374.131	54.45067
374.585	51.57957
375.039	54.16085
375.493	51.88895
375.947	52.13448
376.401	52.91731
376.855	55.28132
377.309	52.79624
377.763	54.74344
378.217	53.87511
378.67	51.76128
379.124	56.18225
379.578	55.04209
380.031	54.86825
380.485	52.3421
380.938	53.12984
381.392	53.92116
381.845	54.45324
382.299	55.37858
382.752	54.13568
383.205	53.5341
383.658	52.47591
384.111	53.29949
384.564	54.1713
385.018	54.16616
385.471	53.78915
385.923	53.96466
386.376	53.45139
386.829	54.50431
387.282	55.03662
387.735	55.87655
388.187	55.78599
388.64	54.12363
389.093	54.25276
389.545	55.99204
389.998	54.51877
390.45	54.06682
390.902	53.97105
391.355	53.43973
391.807	55.49311
392.259	54.717
392.711	54.74012
393.163	54.48591
393.615	55.73028
394.068	55.88129
394.519	55.31454
394.971	54.56668
395.423	54.66502
395.875	55.11087
396.327	54.39196
396.779	55.53553
397.23	54.91796
397.682	55.76094
398.133	55.13064
398.585	54.46968
399.036	54.65805
399.488	54.44151
399.939	55.85234
400.39	54.88435
400.842	54.60863
401.293	53.9515
401.744	53.86441
402.195	54.16277
402.646	53.60446
403.097	54.08632
403.548	53.80622
403.999	53.65239
404.45	53.96913
404.9	53.16224
405.351	53.53939
405.802	53.34512
406.253	52.74601
406.703	52.73179
407.154	53.24891
407.604	52.82511
408.055	52.53425
408.505	52.2696
408.955	51.92008
409.406	51.43869
409.856	52.27191
410.306	51.93678
410.756	51.58788
411.206	51.74832
411.656	51.41762
412.106	50.76245
412.556	50.71276
413.006	51.11286
413.456	50.81072
413.905	50.21433
414.355	50.47407
414.805	50.21468
415.254	50.13841
415.704	50.11008
416.153	49.5099
416.603	49.52101
417.052	49.39557
417.502	49.4609
417.951	49.87347
418.4	48.99598
418.849	49.04249
419.298	48.87493
419.748	48.17879
420.197	48.46013
420.646	48.07811
421.094	48.47499
421.543	48.37998
421.992	47.82369
422.441	46.97234
422.89	48.11245
423.338	47.46493
423.787	47.69574
424.236	47.36849
424.684	47.20402
425.133	47.24962
425.581	46.47357
426.029	47.00803
426.478	46.13011
426.926	46.89949
427.374	46.62871
427.822	46.35945
428.27	46.34433
428.718	45.56705
429.166	46.34903
429.614	45.67548
430.062	45.66216
430.51	46.27281
430.958	46.42341
431.406	45.40149
431.853	45.84406
432.301	45.42383
432.749	45.58947
433.196	45.24445
433.644	45.35712
434.091	45.04204
434.538	44.89706
434.986	44.34961
435.433	44.9209
435.88	44.94455
436.327	44.61412
436.775	45.44019
437.222	44.69203
437.669	44.58065
438.116	44.66632
438.563	44.14198
439.009	44.18737
439.456	44.85972
439.903	45.06929
440.35	44.59288
440.796	44.34011
441.243	44.6205
441.689	44.17803
442.136	44.66116
442.582	44.30877
443.029	44.32882
443.475	44.68802
443.921	44.06812
444.368	44.07898
444.814	44.07701
445.26	43.85621
445.706	44.06366
446.152	44.40562
446.598	44.11052
447.044	44.45249
447.49	44.33463
447.936	44.09182
448.381	44.15172
448.827	44.27455
449.273	44.31555
449.718	44.6624
450.164	44.60137
450.61	44.20775
451.055	44.52492
451.5	44.40536
451.946	44.44772
452.391	44.2627
452.836	44.4808
453.282	44.63911
453.727	44.75396
454.172	44.50452
454.617	44.66471
455.062	44.81441
455.507	44.76211
455.952	44.83133
456.396	44.89491
456.841	45.0022
457.286	44.95167
457.731	45.23152
458.175	45.15029
458.62	45.33159
459.064	45.32776
459.509	45.93173
459.953	45.20119
460.398	45.4401
460.842	45.81807
461.286	45.257
461.73	45.60731
462.174	46.16723
462.619	45.73861
463.063	46.5591
463.507	45.92428
463.951	46.28383
464.394	46.26297
464.838	46.25675
465.282	45.98356
465.726	46.25677
466.17	46.59728
466.613	46.29335
467.057	46.56973
467.5	46.98046
467.944	47.1057
468.387	47.58803
468.831	47.17831
469.274	47.72695
469.717	47.69588
470.16	48.2634
470.603	48.38444
471.047	48.52347
471.49	48.83876
471.933	48.68847
472.376	48.89185
472.818	49.32131
473.261	49.34441
473.704	49.18466
474.147	49.53879
474.59	49.72079
475.032	50.07137
475.475	49.99336
475.917	50.0838
476.36	50.3211
476.802	50.25009
477.245	50.66808
477.687	51.30656
478.129	50.86251
478.571	51.44844
479.013	51.76294
479.456	51.59556
479.898	52.21582
480.34	52.18277
480.782	52.216
481.224	52.42992
481.665	52.32022
482.107	52.4734
482.549	52.80002
482.991	52.55735
483.432	52.89161
483.874	53.10034
484.315	52.69145
484.757	53.18723
485.198	53.57054
485.64	53.81095
486.081	53.58751
486.522	54.01044
486.963	54.62514
487.405	54.59277
487.846	54.33671
488.287	54.65629
488.728	55.13169
489.169	54.9426
489.61	55.00328
490.05	55.3273
490.491	55.73595
490.932	55.40823
491.373	55.08205
491.813	56.07744
492.254	55.57534
492.694	55.85202
493.135	55.73756
493.575	55.50553
494.016	55.64549
494.456	55.59997
494.896	56.00897
495.336	55.82945
495.777	56.61627
496.217	55.63983
496.657	56.17708
497.097	56.07977
497.537	56.01819
497.977	56.24205
498.416	56.19733
498.856	56.65368
499.296	56.86314
499.736	57.13965
500.175	57.08149
500.615	57.07501
501.054	57.05033
501.494	56.90815
501.933	57.12414
502.373	57.65372
502.812	57.98443
503.251	57.78525
503.69	58.16143
504.129	58.74978
504.569	58.50401
505.008	58.78097
505.447	58.14758
505.886	58.74481
506.324	58.75953
506.763	59.03501
507.202	59.26002
507.641	59.13519
508.079	59.59442
508.518	60.4521
508.957	60.67498
509.395	60.06535
509.834	60.72756
510.272	60.65314
510.71	60.61817
511.149	60.52594
511.587	61.63984
512.025	61.31693
512.463	61.37025
512.901	61.60315
513.339	61.90238
513.777	63.19947
514.215	62.8092
514.653	62.44655
515.091	63.01104
515.529	63.13302
515.966	63.34685
516.404	63.81161
516.842	63.73982
517.279	64.05906
517.717	64.06961
518.154	64.45489
518.592	64.47085
519.029	64.50128
519.466	65.15017
519.904	64.90539
520.341	64.94462
520.778	65.12652
521.215	65.66175
521.652	66.0213
522.089	66.01932
522.526	66.41059
522.963	66.55248
523.399	66.28238
523.836	66.90239
524.273	67.52629
524.71	67.47207
525.146	67.86387
525.583	67.48436
526.019	67.43254
526.456	67.89555
526.892	68.23281
527.328	68.30491
527.765	68.38191
528.201	68.53628
528.637	69.08624
529.073	69.1526
529.509	69.57721
529.945	69.84694
530.381	69.67734
530.817	70.05673
531.253	70.14946
531.689	69.99557
532.124	70.07814
532.56	70.92225
532.996	70.86803
533.431	71.11411
533.867	70.96998
534.302	71.53065
534.738	71.74064
535.173	71.89679
535.608	72.1091
536.044	72.67259
536.479	72.45602
536.914	72.46787
537.349	72.22879
537.784	72.32975
538.219	72.43432
538.654	72.09484
539.089	72.66912
539.524	72.21363
539.959	72.59836
540.393	72.69448
540.828	72.99145
541.263	73.26208
541.697	72.29572
542.132	72.17674
542.566	72.23522
543.001	72.22244
543.435	72.96326
543.869	73.38185
544.303	73.13472
544.738	72.89849
545.172	72.75487
545.606	72.49587
546.04	73.11285
546.474	72.49493
546.908	72.75471
547.342	72.86253
547.775	72.94624
548.209	72.12049
548.643	72.97201
549.077	72.66346
549.51	72.82829
549.944	72.47205
550.377	72.04698
550.811	71.87593
551.244	71.49662
551.677	71.26222
552.111	71.06472
552.544	70.92501
552.977	70.37897
553.41	70.27472
553.843	70.49263
554.276	69.62715
554.709	69.16504
555.142	69.79215
555.575	69.43709
556.008	70.06664
556.44	69.52115
556.873	69.40849
557.306	68.64052
557.738	68.79587
558.171	68.68324
558.603	68.25513
559.036	67.71491
559.468	67.60569
559.9	67.44817
560.333	67.17535
560.765	67.27136
561.197	66.83914
561.629	66.09535
562.061	66.62523
562.493	66.35892
562.925	66.7001
563.357	65.88921
563.789	66.05521
564.22	65.92998
564.652	65.5608
565.084	65.35866
565.515	64.87508
565.947	65.2403
566.378	64.97629
566.81	64.84838
567.241	64.32732
567.672	64.31187
568.104	64.38814
568.535	64.2894
568.966	63.85044
569.397	63.52221
569.828	62.97532
570.259	62.68762
570.69	62.4431
571.121	62.18461
571.552	61.91064
571.983	62.0056
572.414	61.6591
572.844	62.02844
573.275	61.76966
573.705	61.37093
574.136	61.29446
574.566	61.0798
574.997	61.06813
575.427	61.02404
575.857	60.81906
576.288	60.42385
576.718	60.8461
577.148	60.19883
577.578	60.23523
578.008	59.79387
578.438	59.99483
578.868	59.77306
579.298	59.14802
579.728	59.06479
580.157	58.82708
580.587	58.74883
581.017	58.67144
581.446	57.86033
581.876	57.82617
582.305	57.88345
582.735	58.02539
583.164	57.58619
583.593	57.11044
584.023	57.23679
584.452	57.21697
584.881	56.73145
585.31	56.92035
585.739	56.8416
586.168	56.83341
586.597	56.32065
587.026	56.33204
587.455	56.07063
587.884	55.85985
588.312	55.74158
588.741	55.61722
589.17	55.74703
589.598	55.35074
590.027	54.70389
590.455	54.60608
590.884	54.70464
591.312	54.23587
591.74	54.65048
592.168	54.47974
592.597	54.42005
593.025	54.10334
593.453	53.97022
593.881	53.70989
594.309	53.64481
594.737	53.3291
595.165	53.2017
595.592	53.43258
596.02	53.0884
596.448	52.74185
596.875	52.79979
597.303	52.39273
597.73	52.17122
598.158	52.9049
598.585	52.32682
599.013	52.22779
599.44	52.16094
599.867	51.96093
600.294	52.14039
600.722	51.74673
601.149	51.71259
601.576	51.30906
602.003	51.49538
602.43	50.91799
602.856	50.97224
603.283	50.99127
603.71	51.19915
604.137	50.79739
604.563	50.86485
604.99	50.99165
605.416	50.83785
605.843	50.82358
606.269	50.79182
606.696	50.46908
607.122	50.5379
607.548	50.08995
607.975	50.12831
608.401	49.68358
608.827	49.67553
609.253	49.61807
609.679	49.84899
610.105	49.57731
610.531	49.82591
610.956	49.72438
611.382	49.51486
611.808	49.87925
612.234	49.36173
612.659	49.73552
613.085	49.56756
613.51	49.10875
613.936	49.22394
614.361	49.45879
614.786	48.86439
615.212	49.07109
615.637	49.12226
616.062	48.69473
616.487	48.97955
616.912	49.18405
617.337	48.84559
617.762	49.04633
618.187	48.62622
618.612	48.69893
619.037	48.86911
619.461	48.73217
619.886	48.90397
620.311	48.85454
620.735	48.58561
621.16	48.71573
621.584	48.89432
622.008	48.86472
622.433	48.51645
622.857	48.4462
623.281	48.31874
623.705	48.06281
624.13	48.70141
624.554	48.2754
624.978	48.08722
625.402	48.10866
625.826	47.97712
626.249	47.97665
626.673	47.84982
627.097	48.41799
627.521	47.85102
627.944	48.11198
628.368	48.52634
628.791	48.30748
629.215	48.34636
629.638	48.24555
630.061	48.73269
630.485	48.80515
630.908	48.36928
631.331	48.42068
631.754	49.0165
632.177	49.22113
632.6	48.83864
633.023	48.94687
633.446	49.19855
633.869	49.68336
634.292	49.46595
634.715	50.05913
635.137	49.73716
635.56	49.8721
635.982	50.06271
636.405	49.93204
636.827	50.20095
637.25	49.95936
637.672	49.46947
638.094	49.49711
638.517	49.65067
638.939	49.78674
639.361	50.37282
639.783	50.17308
640.205	50.63858
640.627	50.1552
641.049	50.76159
641.471	50.50704
641.893	50.48879
642.314	51.08595
642.736	50.75264
643.158	50.67379
643.579	50.82565
644.001	50.64193
644.422	51.85867
644.844	51.60288
645.265	51.16412
645.686	51.03318
646.107	51.70462
646.529	51.20814
646.95	51.45358
647.371	51.63181
647.792	51.71587
648.213	51.95338
648.634	52.37642
649.055	52.66974
649.475	52.70943
649.896	52.803
650.317	52.85308
650.737	53.60068
651.158	53.19181
651.578	52.8223
651.999	53.57259
652.419	52.71684
652.84	53.53983
653.26	53.12392
653.68	53.22192
654.1	53.73128
654.521	53.30491
654.941	53.36556
655.361	54.38049
655.781	53.99123
656.2	54.11381
656.62	54.33316
657.04	54.28883
657.46	54.33804
657.879	54.40609
658.299	54.75174
658.719	55.01114
659.138	54.80829
659.558	55.04486
659.977	55.43239
660.396	55.64536
660.816	55.28526
661.235	55.36945
661.654	54.94293
662.073	55.29854
662.492	55.5264
662.911	55.4028
663.33	55.83672
663.749	55.61579
664.168	56.03916
664.587	57.0217
665.006	57.15689
665.424	56.5586
665.843	56.88557
666.261	56.98172
666.68	56.40633
667.098	56.97525
667.517	57.04911
667.935	56.94445
668.353	56.82762
668.772	56.69219
669.19	56.38769
669.608	56.70186
670.026	56.58037
670.444	56.61487
670.862	56.97029
671.28	56.89262
671.698	56.45728
672.115	56.49819
672.533	56.24926
672.951	56.63932
673.368	56.60996
673.786	56.82662
674.203	56.43243
674.621	56.97555
675.038	56.33897
675.456	56.7877
675.873	56.52959
676.29	56.23447
676.707	56.54762
677.124	56.06706
677.541	56.23421
677.958	56.34741
678.375	56.44248
678.792	55.90675
679.209	55.73864
679.626	56.41521
680.043	55.75681
680.459	55.93381
680.876	55.7713
681.292	55.50671
681.709	55.27959
682.125	54.55897
682.542	55.15532
682.958	54.84336
683.374	54.68229
683.79	54.97073
684.207	54.37004
684.623	54.14307
685.039	54.36072
685.455	54.14013
685.871	53.46089
686.286	54.46347
686.702	53.49962
687.118	53.16976
687.534	53.25819
687.949	52.98136
688.365	53.07469
688.781	52.98218
689.196	52.6217
689.611	52.18181
690.027	52.00501
690.442	51.86438
690.857	51.53805
691.273	51.91183
691.688	51.30813
692.103	51.13666
692.518	50.93556
692.933	50.90155
693.348	50.89722
693.763	50.19262
694.177	50.03982
694.592	50.29196
695.007	49.748
695.421	49.72657
695.836	49.69964
696.25	48.90718
696.665	49.2674
697.079	48.57305
697.494	48.86054
697.908	48.27638
698.322	48.01482
698.736	48.1657
699.151	47.94748
699.565	47.68532
699.979	46.94047
700.393	46.96737
700.806	46.56424
701.22	47.0877
701.634	46.71378
702.048	46.16031
702.461	45.40376
702.875	45.69927
703.289	45.68147
703.702	45.37064
704.116	45.29572
704.529	44.34085
704.942	44.90111
705.356	44.12613
705.769	43.93592
706.182	43.30064
706.595	43.90707
707.008	43.43736
707.421	43.17601
707.834	42.95923
708.247	43.31938
708.66	42.3241
709.072	42.43301
709.485	41.97724
709.898	42.33621
710.31	41.42544
710.723	42.03321
711.135	41.64191
711.548	41.44445
711.96	40.65533
712.373	40.764
712.785	40.03824
713.197	40.21483
713.609	39.71398
714.021	39.57563
714.433	39.01487
714.845	38.9613
715.257	38.91653
715.669	38.47166
716.081	38.29319
716.493	37.97967
716.904	37.88273
717.316	37.55157
717.727	37.56878
718.139	37.15181
718.55	37.84533
718.962	36.87115
719.373	36.91988
719.784	36.30446
720.196	36.32496
720.607	35.53281
721.018	35.78869
721.429	35.20529
721.84	35.47801
722.251	35.26018
722.662	35.59775
723.073	34.88736
723.483	34.63694
723.894	34.38019
724.305	34.26851
724.715	33.80521
725.126	34.41348
725.536	33.49816
725.947	33.49618
726.357	33.03237
726.768	33.14588
727.178	32.56629
727.588	32.86117
727.998	32.17805
728.408	32.25309
728.818	31.70973
729.228	32.23309
729.638	31.78624
730.048	31.62967
730.458	31.53209
730.868	31.59811
731.277	30.87919
731.687	31.32247
732.097	30.88842
732.506	30.91084
732.916	30.30354
733.325	30.39668
733.734	30.11022
734.144	30.07999
734.553	30.23335
734.962	29.69824
735.371	29.60651
735.78	29.48297
736.189	29.2515
736.598	28.90579
737.007	29.33527
737.416	28.22329
737.825	28.67419
738.233	28.23386
738.642	28.65008
739.051	27.72832
739.459	28.18839
739.868	27.50631
740.276	27.68136
740.684	27.17308
741.093	27.92037
741.501	26.81205
741.909	27.07878
742.317	27.15988
742.725	26.96025
743.133	26.6746
743.541	26.68392
743.949	26.83777
744.357	26.35187
744.765	26.80902
745.173	26.25377
745.58	26.65507
745.988	26.27388
746.396	26.21448
746.803	25.78663
747.211	25.96498
747.618	25.53851
748.025	25.88603
748.433	25.26997
748.84	25.65989
749.247	25.57739
749.654	25.39581
750.061	25.35964
750.468	25.15411
750.875	24.98211
751.282	24.58453
751.689	25.13908
752.096	24.58497
752.502	25.06343
752.909	24.63281
753.316	24.87032
753.722	24.15829
754.129	24.32802
754.535	24.51958
754.941	24.08166
755.348	24.3865
755.754	23.77244
756.16	24.49689
756.566	23.33875
756.972	23.98347
757.378	23.56597
757.784	24.00372
758.19	23.39049
758.596	23.59578
759.002	23.63928
759.408	23.44202
759.813	24.17877
760.219	23.72253
760.624	24.17235
761.03	23.30014
761.435	23.52162
761.841	22.84932
762.246	22.99634
762.651	23.06615
763.057	23.15299
763.462	23.77233
763.867	23.5372
764.272	23.96247
764.677	23.74767
765.082	23.89457
765.487	23.63124
765.892	23.54388
766.296	23.34266
766.701	23.04053
767.106	23.37388
767.51	22.54766
767.915	23.21415
768.319	22.76626
768.724	23.23161
769.128	22.72084
769.532	22.49715
769.936	22.72367
770.341	22.41236
770.745	22.7733
771.149	22.59143
771.553	22.92415
771.957	22.30606
772.361	22.89105
772.764	22.59605
773.168	22.30242
773.572	23.18751
773.976	22.46009
774.379	23.2059
774.783	22.20841
775.186	22.2709
775.59	22.42875
775.993	22.44647
776.396	22.50963
776.8	22.03335
777.203	23.04778
777.606	21.9157
778.009	22.55877
778.412	22.62408
778.815	21.84603
779.218	22.83811
779.621	22.48997
780.023	22.3816
780.426	22.61393
780.829	22.6136
781.231	22.59413
781.634	22.20224
782.036	23.1116
782.439	22.1558
782.841	22.81269
783.244	22.25082
783.646	22.51111
784.048	22.74134
784.45	22.32939
784.852	22.65095
785.254	22.52258
785.656	22.92086
786.058	22.60746
786.46	22.05483
786.862	22.8104
787.264	22.25578
787.665	22.31434
788.067	22.44036
788.468	22.29006
788.87	22.63223
789.271	22.20034
789.673	22.62236
790.074	22.34172
790.475	22.22854
790.877	22.54217
791.278	22.38178
791.679	22.57752
792.08	22.49045
792.481	22.645
792.882	22.67807
793.283	22.24125
793.683	22.70712
794.084	22.24442
794.485	22.22521
794.886	22.38814
795.286	22.09358
795.687	22.32988
796.087	21.84647
796.487	22.66471
796.888	22.24314
797.288	21.89621
797.688	22.48487
798.088	22.3734
798.489	22.70357
798.889	22.38632
799.289	22.23745
799.689	22.93981
800.088	21.63085
800.488	22.55683
800.888	22.35944
801.288	22.57704
801.687	23.27286
802.087	22.24224
802.486	22.90212
802.886	22.40271
803.285	22.62738
803.685	23.02968
804.084	22.35597
804.483	22.50388
804.882	22.71844
805.281	22.33203
805.68	22.52005
806.079	22.50539
806.478	23.01564
806.877	22.69635
807.276	22.26479
807.675	23.27378
808.074	22.11077
808.472	22.74364
808.871	22.95684
809.269	22.24451
809.668	23.16782
810.066	22.70137
810.465	22.77277
810.863	23.04319
811.261	22.56299
811.659	22.89916
812.057	22.91908
812.455	22.68708
812.853	23.3976
813.251	22.31372
813.649	23.14664
814.047	22.67902
814.445	22.5689
814.843	22.67978
815.24	22.55735
815.638	22.79658
816.035	23.24433
816.433	22.27712
816.83	23.16009
817.228	22.84104
817.625	22.75021
818.022	23.3223
818.419	22.39889
818.816	22.69228
819.213	22.89696
819.61	22.27669
820.007	23.07257
820.404	22.73785
820.801	23.10527
821.198	23.60717
821.595	22.8267
821.991	23.31456
822.388	23.7704
822.784	23.60061
823.181	24.33786
823.577	24.42736
823.974	24.30231
824.37	24.53448
824.766	24.09847
825.162	23.92493
825.558	24.07838
825.954	23.34235
826.35	23.91461
826.746	23.86225
827.142	23.71216
827.538	24.30579
827.934	23.75072
828.33	23.93615
828.725	24.20205
829.121	23.91009
829.516	23.70425
829.912	23.543
830.307	23.02666
830.703	23.78649
831.098	23.31564
831.493	23.2184
831.888	23.29653
832.283	22.68942
832.678	23.12279
833.073	23.34174
833.468	23.28263
833.863	23.68931
834.258	24.10796
834.653	23.74554
835.048	23.85354
835.442	23.87996
835.837	23.77278
836.231	24.04897
836.626	23.90676
837.02	23.82187
837.415	23.89623
837.809	24.29692
838.203	23.78301
838.597	23.85937
838.991	23.09364
839.385	23.65848
839.779	23.88882
840.173	23.3461
840.567	24.12491
840.961	23.64202
841.355	23.92662
841.748	24.22474
842.142	23.59527
842.536	24.47269
842.929	24.66138
843.323	24.6235
843.716	24.05383
844.109	23.96152
844.503	24.22421
844.896	24.49887
845.289	24.3987
845.682	24.26732
846.075	25.39484
846.468	24.58043
846.861	24.69785
847.254	25.30268
847.647	25.06177
848.04	24.83733
848.432	24.61132
848.825	24.55484
849.217	25.15108
849.61	24.80786
850.002	23.96317
850.395	24.7596
850.787	24.56899
851.179	24.18948
851.572	24.82576
851.964	24.41069
852.356	24.02554
852.748	25.27962
853.14	24.68727
853.532	24.27147
853.924	24.87939
854.315	25.14054
854.707	25.07767
855.099	25.27062
855.491	24.17026
855.882	24.51819
856.274	24.18616
856.665	24.75524
857.056	24.68677
857.448	25.07244
857.839	24.78841
858.23	24.25967
858.621	24.74233
859.012	25.19935
859.403	24.1067
859.794	24.92695
860.185	24.58411
860.576	24.84055
860.967	25.99215
861.358	24.48787
861.748	24.81787
862.139	25.17594
862.529	24.4149
862.92	24.17598
863.31	24.95188
863.701	23.88197
864.091	24.21696
864.481	25.18522
864.872	24.86348
865.262	23.82967
865.652	24.51568
866.042	24.553
866.432	24.21911
866.822	24.6805
867.211	24.36299
867.601	24.05979
867.991	25.05128
868.381	24.10196
868.77	24.53913
869.16	23.99835
869.549	24.55093
869.939	24.00496
870.328	24.21112
870.717	23.81811
871.106	24.11193
871.496	24.26773
871.885	24.68434
872.274	24.21122
872.663	25.08393
873.052	24.75265
873.441	24.22714
873.829	24.15609
874.218	23.69672
874.607	23.64719
874.996	23.84369
875.384	24.45018
875.773	23.54748
876.161	23.9258
876.549	23.43184
876.938	23.46317
877.326	23.21779
877.714	23.73954
878.102	23.47855
878.491	23.49032
878.879	23.9424
879.267	23.11375
879.655	23.64561
880.042	24.51559
880.43	24.03186
880.818	24.31208
881.206	24.63855
881.593	24.50691
881.981	24.49679
882.368	24.82464
882.756	24.54248
883.143	24.463
883.53	24.5496
883.918	24.33312
884.305	23.99631
884.692	24.15305
885.079	24.48396
885.466	23.96401
885.853	24.28844
886.24	24.06444
886.627	23.54683
887.014	23.23556
887.4	23.772
887.787	24.02989
888.174	24.10748
888.56	24.54329
888.947	23.99991
889.333	23.57867
889.719	23.76904
890.106	23.41551
890.492	23.37405
890.878	23.97984
891.264	23.63402
891.65	23.31617
892.036	23.7086
892.422	23.51913
892.808	23.18643
893.194	23.63876
893.58	23.54554
893.965	23.74246
894.351	23.33109
894.736	23.91562
895.122	23.98041
895.507	23.69878
895.893	24.38751
896.278	23.95071
896.663	23.97583
897.049	23.66682
897.434	23.96163
897.819	23.60609
898.204	23.8524
898.589	23.88229
898.974	24.02958
899.359	23.7904
899.743	23.66345
900.128	23.52352
900.513	23.53741
900.897	23.4851
901.282	23.47006
901.667	23.48735
902.051	23.44137
902.435	23.34869
902.82	22.87896
903.204	22.79141
903.588	23.47525
903.972	23.43379
904.356	23.22312
904.74	23.81997
905.124	24.34717
905.508	23.67205
905.892	23.33947
906.276	24.16026
906.659	23.94715
907.043	23.35701
907.427	24.04133
907.81	23.87439
908.194	24.34598
908.577	24.69446
908.96	23.95964
909.344	23.61266
909.727	23.62942
910.11	23.93231
910.493	24.13909
910.876	23.86017
911.259	23.56458
911.642	23.75573
912.025	22.7324
912.408	23.50092
912.79	23.16313
913.173	23.14328
913.556	23.34933
913.938	24.37509
914.321	23.42376
914.703	22.62096
915.086	23.01217
915.468	23.36122
915.85	22.86349
916.232	22.71099
916.614	23.89207
916.996	23.22733
917.378	23.4355
917.76	23.45875
918.142	23.52539
918.524	23.06583
918.906	23.34718
919.288	23.41185
919.669	23.54905
920.051	23.44356
920.432	23.15034
920.814	23.30331
921.195	23.39435
921.577	23.5558
921.958	24.74023
922.339	24.04567
922.72	23.60207
923.101	23.45599
923.482	23.99854
923.863	23.12758
924.244	22.90356
924.625	23.3344
925.006	22.80142
925.387	22.12581
925.767	23.63641
926.148	23.05891
926.528	24.2384
926.909	22.37472
927.289	23.43854
927.67	23.84606
928.05	22.90619
928.43	23.72625
928.81	23.81379
929.191	22.63507
929.571	23.5867
929.951	23.22494
930.331	22.96023
930.71	23.24885
931.09	23.90327
931.47	23.54441
931.85	23.571
932.229	23.05565
932.609	23.38233
932.988	24.03802
933.368	22.62084
933.747	22.52448
934.127	23.35449
934.506	22.62036
934.885	21.71264
935.264	22.41395
935.643	22.72804
936.022	22.56963
936.401	22.23403
936.78	23.12451
937.159	22.46823
937.538	22.23061
937.916	22.63544
938.295	23.5763
938.674	22.6496
939.052	23.06702
939.431	22.89267
939.809	22.79983
940.187	21.97147
940.566	22.29483
940.944	21.9723
941.322	22.08872
941.7	22.72864
942.078	22.42479
942.456	22.25715
942.834	22.6188
943.212	22.3643
943.59	23.04011
943.968	22.29811
944.345	21.61455
944.723	21.51035
945.1	21.38734
945.478	22.51426
945.855	22.17203
946.233	22.82094
946.61	22.84903
946.987	22.70918
947.365	21.71161
947.742	22.95406
948.119	23.61065
948.496	21.12898
948.873	21.82497
949.25	20.96651
949.626	22.32365
950.003	22.463
950.38	21.10425
950.756	22.96341
951.133	22.02085
951.51	21.7464
951.886	21.63226
952.262	22.12118
952.639	21.74064
953.015	21.84714
953.391	21.29518
953.767	19.99953
954.143	21.62401
954.519	21.28432
954.895	22.7047
955.271	21.95725
955.647	21.31169
956.023	21.62444
956.399	22.52899
956.774	21.27142
957.15	20.43394
957.525	21.2536
957.901	21.03661
958.276	20.644
958.652	18.85168
959.027	21.90419
959.402	19.6924
959.777	20.97198
960.152	21.36126
960.527	23.0182
960.902	22.45017
961.277	20.16683
961.652	22.19102
962.027	20.47134
962.402	20.31106
962.776	23.40828
963.151	19.21349
963.525	21.50615
963.9	20.95126
964.274	21.77136
964.649	21.10656
965.023	20.40915
965.397	20.14092
965.771	22.49759
966.146	21.78409
966.52	18.10866
966.894	19.97396
967.268	19.23079
967.641	17.06829
968.015	20.35368
968.389	22.60605
968.763	19.7484
969.136	20.84397
969.51	22.23468
969.883	21.32048
970.257	20.99028
970.63	20.275
971.003	20.13255
971.377	21.36605
971.75	19.71049
972.123	20.48865
972.496	21.59568
972.869	20.66474
973.242	21.98019
973.615	18.61655
973.988	23.28879
974.36	20.64798
974.733	21.58753
975.106	19.74737
975.478	21.3996
975.851	20.11459
976.223	21.21794
976.596	19.32922
976.968	20.97385
977.34	20.24952
977.712	19.8606
978.085	19.90587
978.457	19.83304
978.829	20.35558
979.201	19.33376
979.573	20.58157
979.944	18.97111
980.316	19.83273
980.688	19.39697
981.059	21.49066
981.431	21.46183
981.803	21.54344
982.174	20.51682
982.545	19.68023
982.917	20.74758
983.288	21.34925
983.659	20.59658
984.03	20.73065
984.401	19.83203
984.772	18.51641
985.143	20.84334
985.514	19.46912
985.885	19.26506
986.256	20.02774
986.627	21.02317
986.997	18.9745
987.368	18.85634
987.738	20.6315
988.109	19.01334
988.479	19.0826
988.85	18.97204
989.22	19.89428
989.59	19.32505
989.96	19.65744
990.33	18.78129
990.7	18.80874
991.07	19.1988
991.44	19.39122
991.81	19.52645
992.18	19.81642
992.549	19.02049
992.919	17.36113
993.289	20.2225
993.658	20.08633
994.028	20.39995
994.397	20.40047
994.766	19.71088
995.136	20.49603
995.505	20.81583
995.874	18.48578
996.243	19.30075
996.612	21.22287
996.981	19.20915
997.35	19.50992
997.719	18.84844
998.088	17.66761
998.456	19.46971
998.825	19.10434
999.194	19.43552
999.562	23.22808
999.931	20.23905
1000.299	20.67732
1000.667	19.8786
1001.036	21.65089
1001.404	20.65964
1001.772	19.31514
1002.14	21.04921
1002.508	19.63978
1002.876	22.23389
1003.244	19.9594
1003.612	19.18461
1003.98	22.12639
1004.347	16.33262
1004.715	19.87449
1005.083	20.39872
1005.45	18.61258
1005.818	18.06109
1006.185	18.33885
1006.552	21.88445
1006.92	21.71772
1007.287	18.49068
1007.654	15.31609
1008.021	16.78498
1008.388	24.14838
1008.755	17.55029
1009.122	16.85231
1009.489	20.30681
1009.856	25.1621
1010.222	20.93444
1010.589	20.35169
1010.956	19.65131
1011.322	17.58142
1011.689	19.95496
1012.055	22.26018
1012.421	16.26595
1012.788	20.69653
1013.154	24.00526
1013.52	17.85042
1013.886	16.94145
1014.252	19.77657
1014.618	20.10694
1014.984	22.96627
1015.35	14.80955
1015.716	23.05288
1016.081	21.81815
1016.447	22.38214
1016.813	18.3752
1017.178	18.50154
1017.544	18.81369
1017.909	20.23724
1018.274	23.06911
1018.64	17.76948
1019.005	16.17767
1019.37	22.24715
1019.735	22.21061
1020.1	19.40636
1020.465	27.18283
1020.83	16.40973
1021.195	23.18596
1021.56	21.9656
1021.924	28.09835
1022.289	27.9872
1022.654	26.55332
1023.018	15.42245
1023.383	16.59565
1023.747	13.75523
1024.111	18.40422
1024.476	27.78371
1024.84	18.1491
1025.204	23.66529
1025.568	20.95638
1025.932	18.33216
1026.296	29.37894
1026.66	29.32088
1027.024	26.76625
1027.387	23.15648
1027.751	23.53515
1028.115	23.20948
1028.478	24.00715
1028.842	25.03812
1029.205	20.48139
1029.569	15.23528
1029.932	24.12995
1030.295	21.2569
1030.659	26.20994
1031.022	20.9556
1031.385	31.05451
1031.748	22.97332
1032.111	11.27033
1032.474	18.48013
1032.836	18.53448
1033.199	24.11483
1033.562	24.55515
1033.924	30.09547
1034.287	12.41878
1034.65	17.67126
1035.012	24.2649
1035.374	20.2202
1035.737	31.31956
1036.099	28.47159
1036.461	25.23779
1036.823	12.22434
1037.185	24.13692
1037.547	22.86515
1037.909	33.10146
1038.271	15.06665
1038.633	27.13272
1038.995	21.23641
1039.356	6.82226
1039.718	29.33653
1040.08	19.16479
1040.441	13.46118
1040.803	16.41064
1041.164	18.64868
1041.525	19.07597
1041.886	27.06424
1042.248	23.30035
1042.609	28.66255
1042.97	27.48014
1043.331	14.61826
1043.692	14.16997
1044.053	13.64881
1044.413	21.10222
1044.774	-0.76006
1045.135	29.70859
1045.495	28.17303
1045.856	27.19739
1046.216	36.35558
1046.577	22.09328
1046.937	21.31325
1047.298	23.3259
