Data from 1016water_Reflection__19__20-41-48-823.txt Node

Date: Thu Oct 16 20:41:48 AST 2025
User: lin
Spectrometer: SR600411
Trigger mode: 0
Integration Time (sec): 5.601500E-2
Scans to average: 5
Nonlinearity correction enabled: true
Boxcar width: 0
Storing dark spectrum: false
XAxis mode: Wavelengths
Number of Pixels in Spectrum: 2048
>>>>>Begin Spectral Data<<<<<
187.982	45.69016
188.456	60.60263
188.93	62.20965
189.403	57.80893
189.877	62.15009
190.351	50.207
190.825	52.56009
191.298	59.18805
191.772	67.89074
192.246	67.2094
192.719	46.38545
193.193	52.01041
193.666	70.20302
194.139	59.99048
194.613	55.5014
195.086	77.76854
195.559	56.30419
196.033	65.40619
196.506	61.93109
196.979	55.36195
197.452	64.8566
197.925	56.33463
198.398	67.18808
198.871	52.51483
199.344	57.99778
199.816	54.6774
200.289	61.49775
200.762	48.33514
201.235	42.62867
201.707	49.25814
202.18	36.62
202.652	35.92052
203.125	57.96435
203.597	74.16646
204.07	67.04445
204.542	67.96984
205.014	41.10247
205.486	67.73388
205.959	67.03127
206.431	48.22689
206.903	60.80382
207.375	76.14917
207.847	55.62685
208.319	61.10602
208.791	14.28232
209.263	6.31468
209.734	59.6951
210.206	59.79906
210.678	71.19492
211.15	50.41427
211.621	13.33024
212.093	57.42527
212.564	58.32813
213.036	49.99464
213.507	72.62784
213.979	67.87729
214.45	24.99613
214.921	53.5659
215.392	62.15699
215.864	38.8838
216.335	48.50083
216.806	40.64453
217.277	95.60364
217.748	54.75571
218.219	59.5198
218.69	72.84176
219.161	61.10688
219.631	35.95971
220.102	54.47563
220.573	30.57342
221.043	58.32871
221.514	51.54159
221.985	69.69283
222.455	28.45629
222.926	50.47098
223.396	52.87948
223.866	81.14384
224.337	27.44695
224.807	38.17667
225.277	61.72461
225.747	50.72855
226.217	56.51613
226.687	52.97846
227.157	74.99688
227.627	0
228.097	43.58404
228.567	46.59686
229.037	56.72571
229.507	59.42889
229.977	80.98804
230.446	58.71036
230.916	78.56769
231.386	64.04088
231.855	44.53199
232.325	36.66114
232.794	73.54906
233.263	36.14789
233.733	60.62391
234.202	54.44002
234.671	35.04716
235.14	66.66323
235.61	38.13007
236.079	39.99786
236.548	73.55986
237.017	40.67232
237.486	69.1616
237.955	53.16066
238.424	70.32591
238.892	87.96069
239.361	58.69123
239.83	51.63331
240.299	86.56408
240.767	94.18511
241.236	37.49517
241.704	44.24226
242.173	59.99619
242.641	47.67017
243.109	54.94059
243.578	61.19088
244.046	76.14287
244.514	84.26732
244.982	36.66114
245.451	88.73099
245.919	59.20689
246.387	58.88456
246.855	63.94956
247.323	82.67356
247.791	8.9731
248.258	34.64893
248.726	94.4437
249.194	85.71157
249.662	111.94207
250.129	35.08257
250.597	31.02956
251.064	48.03417
251.532	65.90321
251.999	59.64368
252.467	109.3763
252.934	38.67426
253.401	57.44226
253.869	59.25538
254.336	50.58402
254.803	78.56816
255.27	68.28916
255.737	31.76105
256.204	44.22568
256.671	32.25404
257.138	56.94094
257.605	49.05398
258.072	59.99382
258.539	72.81149
259.005	81.07883
259.472	51.15853
259.939	69.38363
260.405	98.03902
260.872	54.99607
261.338	56.18535
261.805	69.34961
262.271	60.64996
262.737	51.91793
263.203	80.40934
263.67	63.91309
264.136	54.0187
264.602	74.35603
265.068	89.53329
265.534	63.26079
266	79.58868
266.466	54.54059
266.932	66.27526
267.398	30.57342
267.864	89.84144
268.329	30.18425
268.795	39.49016
269.261	41.09239
269.726	76.38631
270.192	34.84254
270.657	37.92562
271.123	55.35166
271.588	46.73459
272.053	43.47489
272.519	49.6
272.984	75.38222
273.449	160.01143
273.914	64.99549
274.379	68.68264
274.844	51.88154
275.309	58.23737
275.774	52.47025
276.239	44.53199
276.704	71.16665
277.169	97.61866
277.634	44.32515
278.098	33.32897
278.563	33.02274
279.028	54.11346
279.492	32.75355
279.957	64.76875
280.421	41.93249
280.886	41.57929
281.35	50.49004
281.814	35.71174
282.279	30.76649
282.743	105.79794
283.207	82.1396
283.671	55.73173
284.135	60.79409
284.599	54.36387
285.063	63.45676
285.527	46.83154
285.991	72.21864
286.455	57.64294
286.919	55.23295
287.382	46.14808
287.846	51.99505
288.31	64.19384
288.773	66.66349
289.237	94.59384
289.7	65.08956
290.164	45.1872
290.627	80.26077
291.09	49.49994
291.554	93.40548
292.017	57.57097
292.48	61.67722
292.943	53.32815
293.406	38.55032
293.869	64.36386
294.332	48.10796
294.795	28.3918
295.258	71.84053
295.721	51.45121
296.184	76.26907
296.646	11.53688
297.109	91.8908
297.572	44.04351
298.034	69.6942
298.497	53.77565
298.959	62.17221
299.422	105.88319
299.884	88.78293
300.346	54.01871
300.809	46.26536
301.271	46.93393
301.733	69.11477
302.195	75.90061
302.657	63.53726
303.119	66.66376
303.581	53.84167
304.043	42.67895
304.505	52.57252
304.967	93.61591
305.429	43.27706
305.891	68.74727
306.352	62.31563
306.814	24.99732
307.275	86.43931
307.737	82.75698
308.198	67.16984
308.66	41.66262
309.121	97.18271
309.583	38.66314
310.044	42.02565
310.505	46.22119
310.966	87.65258
311.428	59.5198
311.889	52.28818
312.35	53.90738
312.811	50.3812
313.272	109.80501
313.733	96.05206
314.193	142.6935
314.654	48.38249
315.115	97.75242
315.576	59.25538
316.036	68.81325
316.497	68.35104
316.957	55.44916
317.418	44.44224
317.878	80.33822
318.339	92.40396
318.799	52.72184
319.259	87.09539
319.72	15.71245
320.18	42.8517
320.64	68.05245
321.1	53.40475
321.56	56.56083
322.02	66.34155
322.48	10.25499
322.94	50.5704
323.4	72.3367
323.86	61.60189
324.319	76.38632
324.779	89.06126
325.239	36.93181
325.698	49.34683
326.158	79.00968
326.617	53.12184
327.077	59.31921
327.536	48.74604
327.996	113.79491
328.455	71.76129
328.914	72.08959
329.373	31.99676
329.832	63.53725
330.292	105.79794
330.751	91.13798
331.21	69.69283
331.668	65.21429
332.127	78.20249
332.586	108.33419
333.045	72.16108
333.504	69.16731
333.962	32.69004
334.421	105.88319
334.88	54.09536
335.338	59.80798
335.797	57.3297
336.255	36.48308
336.714	42.30392
337.172	72.26418
337.63	21.56692
338.088	60.56002
338.547	49.39348
339.005	49.39348
339.463	56.75136
339.921	45.55114
340.379	43.20593
340.837	77.1707
341.295	88.70845
341.753	58.89711
342.21	61.7246
342.668	69.50874
343.126	44.15208
343.584	49.54405
344.041	61.1602
344.499	33.02275
344.956	47.49604
345.414	67.73791
345.871	27.44696
346.328	51.89483
346.786	77.11452
347.243	62.88211
347.7	64.17605
348.157	47.21689
348.614	44.99607
349.071	59.56773
349.528	75.92201
349.985	63.7878
350.442	81.47825
350.899	53.25633
351.356	83.13022
351.812	21.61789
352.269	70.63772
352.726	102.46954
353.182	77.775
353.639	67.56275
354.095	70.11132
354.552	45.27781
355.008	60.64997
355.465	53.46037
355.921	29.3599
356.377	56.30566
356.833	54.01871
357.289	66.95148
357.745	93.10234
358.201	52.4753
358.657	47.05294
359.113	54.63441
359.569	64.5498
360.025	59.08353
360.481	66.41731
360.937	52.93194
361.392	47.63865
361.848	73.95805
362.303	52.66529
362.759	77.83152
363.214	52.96385
363.67	71.42009
364.125	56.91046
364.581	50.38113
365.036	50.8582
365.491	53.72285
365.946	61.62034
366.401	54.60731
366.856	58.24224
367.311	57.45596
367.766	60.92636
368.221	58.21378
368.676	59.51441
369.131	50.41609
369.586	52.43683
370.041	53.63984
370.495	53.5348
370.95	57.90204
371.404	48.27487
371.859	49.95925
372.313	58.93149
372.768	50.8797
373.222	53.21095
373.676	54.93523
374.131	55.09419
374.585	53.30109
375.039	54.16085
375.493	54.49811
375.947	56.05423
376.401	53.90372
376.855	54.00543
377.309	56.29881
377.763	58.25077
378.217	56.39485
378.67	54.49393
379.124	55.88195
379.578	55.65042
380.031	58.38226
380.485	54.63456
380.938	56.02044
381.392	53.69508
381.845	56.27514
382.299	56.00921
382.752	54.82965
383.205	55.55379
383.658	53.95977
384.111	53.74005
384.564	54.5424
385.018	55.23361
385.471	55.27484
385.923	54.58338
386.376	54.77452
386.829	55.51422
387.282	56.83441
387.735	56.06292
388.187	56.67703
388.64	57.34834
389.093	56.26336
389.545	56.34535
389.998	55.86859
390.45	54.5044
390.902	55.16224
391.355	55.60328
391.807	56.27516
392.259	56.44752
392.711	57.05915
393.163	55.79984
393.615	55.81195
394.068	56.7489
394.519	57.39514
394.971	56.81761
395.423	55.56526
395.875	56.13525
396.327	56.40054
396.779	56.43026
397.23	56.63014
397.682	55.24767
398.133	55.36096
398.585	56.22762
399.036	54.98731
399.488	55.52284
399.939	55.5291
400.39	55.42941
400.842	54.51267
401.293	53.69861
401.744	54.80146
402.195	55.54016
402.646	53.71794
403.097	54.53722
403.548	54.09801
403.999	53.48966
404.45	54.48419
404.9	54.08971
405.351	53.52892
405.802	53.85802
406.253	53.23637
406.703	53.68211
407.154	52.7801
407.604	52.94759
408.055	52.86764
408.505	52.94607
408.955	52.71196
409.406	52.66419
409.856	51.90485
410.306	52.53232
410.756	51.7352
411.206	51.83658
411.656	51.95078
412.106	51.15781
412.556	51.28389
413.006	51.18812
413.456	50.46068
413.905	50.7324
414.355	50.44186
414.805	50.81932
415.254	50.13452
415.704	50.40191
416.153	49.40466
416.603	49.48065
417.052	50.0018
417.502	49.55596
417.951	49.57098
418.4	49.16422
418.849	48.95362
419.298	49.21046
419.748	48.60539
420.197	48.26595
420.646	48.05104
421.094	48.17666
421.543	48.08534
421.992	48.72009
422.441	47.4709
422.89	47.43707
423.338	47.61151
423.787	47.1195
424.236	47.38171
424.684	46.85103
425.133	46.4567
425.581	46.56493
426.029	47.09559
426.478	46.91848
426.926	46.30731
427.374	46.37284
427.822	46.19753
428.27	45.91404
428.718	46.16963
429.166	46.38152
429.614	46.11348
430.062	45.43134
430.51	45.97791
430.958	46.06633
431.406	45.54354
431.853	45.56917
432.301	45.57393
432.749	45.91065
433.196	45.18046
433.644	45.28766
434.091	45.08085
434.538	45.57149
434.986	44.84482
435.433	44.93816
435.88	45.17429
436.327	44.91594
436.775	44.69543
437.222	44.72653
437.669	44.63843
438.116	44.1107
438.563	44.22101
439.009	44.62262
439.456	44.63416
439.903	45.18165
440.35	44.68832
440.796	45.20617
441.243	44.79298
441.689	44.73573
442.136	45.11657
442.582	44.79822
443.029	44.5521
443.475	44.76218
443.921	44.69653
444.368	44.62335
444.814	44.31481
445.26	44.23728
445.706	44.64027
446.152	44.88175
446.598	44.29691
447.044	44.54657
447.49	44.88342
447.936	44.20929
448.381	44.38364
448.827	44.52266
449.273	45.02069
449.718	45.15586
450.164	44.82876
450.61	44.43359
451.055	44.60604
451.5	44.6304
451.946	44.65423
452.391	45.32309
452.836	44.91425
453.282	44.92277
453.727	45.20217
454.172	45.10131
454.617	45.09735
455.062	45.30214
455.507	45.60426
455.952	45.6903
456.396	45.47982
456.841	45.3971
457.286	45.96685
457.731	45.84141
458.175	45.99949
458.62	46.482
459.064	46.09442
459.509	45.98287
459.953	46.42722
460.398	46.35016
460.842	46.42745
461.286	46.66968
461.73	46.52655
462.174	46.70313
462.619	46.50856
463.063	47.31609
463.507	47.38959
463.951	47.5298
464.394	47.43659
464.838	47.28039
465.282	47.55515
465.726	47.62728
466.17	47.94135
466.613	47.78109
467.057	48.01936
467.5	48.54249
467.944	48.61163
468.387	48.81832
468.831	48.76038
469.274	49.23829
469.717	49.49752
470.16	50.04267
470.603	50.39344
471.047	50.45169
471.49	50.31648
471.933	50.53484
472.376	50.70218
472.818	50.88757
473.261	51.10705
473.704	50.74125
474.147	50.8481
474.59	51.55586
475.032	51.82668
475.475	51.6744
475.917	52.09523
476.36	52.1504
476.802	52.45708
477.245	52.24599
477.687	52.91391
478.129	52.76847
478.571	53.47903
479.013	53.31699
479.456	53.78715
479.898	53.9102
480.34	54.0695
480.782	54.25399
481.224	54.07849
481.665	53.73702
482.107	54.1576
482.549	54.40132
482.991	54.31045
483.432	54.49305
483.874	54.66781
484.315	54.50147
484.757	54.49739
485.198	55.103
485.64	55.15268
486.081	55.19362
486.522	55.39931
486.963	55.68493
487.405	55.43671
487.846	55.95724
488.287	55.79399
488.728	55.87056
489.169	56.42279
489.61	56.07566
490.05	56.40911
490.491	56.65741
490.932	56.44207
491.373	56.09623
491.813	56.78632
492.254	56.30759
492.694	56.54596
493.135	56.84454
493.575	56.48552
494.016	56.23649
494.456	56.32974
494.896	56.51787
495.336	56.70342
495.777	57.27976
496.217	57.02862
496.657	56.89731
497.097	56.85252
497.537	56.74661
497.977	56.86092
498.416	56.92534
498.856	57.33332
499.296	57.15237
499.736	57.42147
500.175	57.31618
500.615	57.51763
501.054	57.72872
501.494	57.99618
501.933	58.23776
502.373	58.32339
502.812	58.49273
503.251	58.31873
503.69	58.87608
504.129	59.23457
504.569	59.20325
505.008	59.61655
505.447	59.06605
505.886	59.6801
506.324	59.57507
506.763	59.52646
507.202	59.49718
507.641	59.88615
508.079	60.36343
508.518	61.28805
508.957	61.02936
509.395	60.86763
509.834	61.52836
510.272	61.77431
510.71	61.5674
511.149	61.355
511.587	62.13153
512.025	61.94356
512.463	61.91276
512.901	61.6445
513.339	62.36147
513.777	63.24415
514.215	63.05958
514.653	62.83477
515.091	63.35789
515.529	63.447
515.966	63.33675
516.404	64.3291
516.842	63.93515
517.279	64.32243
517.717	63.75623
518.154	64.53557
518.592	64.53423
519.029	64.85885
519.466	65.02721
519.904	65.0487
520.341	65.22848
520.778	65.077
521.215	65.83028
521.652	65.51819
522.089	65.84858
522.526	66.30147
522.963	66.35905
523.399	66.28864
523.836	67.02977
524.273	67.00766
524.71	67.48946
525.146	67.82574
525.583	67.9627
526.019	68.09708
526.456	68.28911
526.892	68.45236
527.328	68.4636
527.765	68.75023
528.201	68.39136
528.637	69.09753
529.073	69.08633
529.509	69.35374
529.945	69.67236
530.381	69.53498
530.817	69.41868
531.253	70.12155
531.689	70.04158
532.124	69.98927
532.56	70.05021
532.996	70.58788
533.431	70.50186
533.867	70.66596
534.302	70.91716
534.738	71.93034
535.173	71.53245
535.608	71.42442
536.044	72.29278
536.479	71.60204
536.914	72.06179
537.349	72.12724
537.784	72.16746
538.219	71.80688
538.654	71.57127
539.089	72.04408
539.524	71.97405
539.959	71.96999
540.393	71.98104
540.828	71.95296
541.263	72.84806
541.697	72.53914
542.132	72.18774
542.566	72.34353
543.001	73.00632
543.435	72.75407
543.869	72.98942
544.303	72.85686
544.738	73.04394
545.172	72.74554
545.606	72.83189
546.04	73.03261
546.474	72.7986
546.908	72.7418
547.342	72.76123
547.775	72.61339
548.209	71.87891
548.643	73.08701
549.077	73.30903
549.51	72.42436
549.944	71.8134
550.377	72.22877
550.811	71.74445
551.244	71.52871
551.677	71.83643
552.111	71.51234
552.544	71.23001
552.977	70.37719
553.41	70.38191
553.843	70.36188
554.276	70.07316
554.709	69.3391
555.142	69.33231
555.575	69.5024
556.008	69.67775
556.44	69.01744
556.873	68.65488
557.306	68.35255
557.738	68.21254
558.171	68.4407
558.603	67.82865
559.036	67.47724
559.468	67.26732
559.9	67.79028
560.333	67.23306
560.765	67.15614
561.197	67.31688
561.629	66.61611
562.061	66.1573
562.493	66.67129
562.925	66.70364
563.357	65.95408
563.789	65.96625
564.22	65.53037
564.652	65.57281
565.084	65.0517
565.515	64.99008
565.947	65.00235
566.378	64.78412
566.81	64.53662
567.241	64.16506
567.672	63.96027
568.104	64.16307
568.535	63.98459
568.966	63.81031
569.397	62.92952
569.828	62.73631
570.259	62.05168
570.69	61.76124
571.121	61.69859
571.552	60.89675
571.983	61.50586
572.414	61.03183
572.844	60.5616
573.275	60.68151
573.705	60.48306
574.136	60.43774
574.566	60.07128
574.997	60.07612
575.427	60.06492
575.857	59.85739
576.288	59.37555
576.718	59.76641
577.148	59.49415
577.578	59.45204
578.008	58.76851
578.438	58.95153
578.868	58.74473
579.298	57.93352
579.728	57.49793
580.157	57.73247
580.587	57.19853
581.017	57.10574
581.446	56.55324
581.876	56.49687
582.305	56.06935
582.735	56.28795
583.164	56.28169
583.593	55.7758
584.023	55.59387
584.452	55.78563
584.881	55.1398
585.31	55.33306
585.739	55.01552
586.168	54.89456
586.597	54.71535
587.026	54.29684
587.455	53.9376
587.884	54.01989
588.312	53.8076
588.741	53.2704
589.17	53.21821
589.598	52.88491
590.027	52.86777
590.455	52.1935
590.884	52.4168
591.312	52.24367
591.74	52.15177
592.168	51.94069
592.597	51.87905
593.025	51.52497
593.453	51.49513
593.881	51.56073
594.309	51.21621
594.737	51.04992
595.165	50.96211
595.592	51.09513
596.02	50.62801
596.448	50.42801
596.875	50.12448
597.303	50.06091
597.73	49.37942
598.158	49.92866
598.585	50.05536
599.013	49.859
599.44	49.5464
599.867	49.17256
600.294	49.36962
600.722	48.75845
601.149	48.77846
601.576	49.07538
602.003	48.73635
602.43	48.26612
602.856	48.25192
603.283	48.10972
603.71	48.11305
604.137	48.31064
604.563	48.42288
604.99	48.04325
605.416	48.11998
605.843	47.98623
606.269	47.8138
606.696	47.85187
607.122	47.9621
607.548	47.29646
607.975	47.20701
608.401	47.26323
608.827	47.16312
609.253	47.25526
609.679	47.20695
610.105	46.67354
610.531	47.0135
610.956	46.83931
611.382	47.01222
611.808	46.73965
612.234	46.28714
612.659	46.6366
613.085	46.45049
613.51	46.47238
613.936	46.6825
614.361	46.88072
614.786	46.81736
615.212	46.41329
615.637	46.21285
616.062	46.10635
616.487	46.45974
616.912	46.55795
617.337	46.34446
617.762	46.67546
618.187	46.48529
618.612	46.35382
619.037	46.04537
619.461	46.12635
619.886	46.12688
620.311	46.42376
620.735	46.61486
621.16	46.23529
621.584	46.61186
622.008	46.29571
622.433	46.27996
622.857	45.76622
623.281	46.00906
623.705	45.7814
624.13	46.21768
624.554	45.66995
624.978	46.02106
625.402	45.67292
625.826	45.76839
626.249	45.77738
626.673	45.74163
627.097	45.98314
627.521	45.70597
627.944	46.0068
628.368	46.05408
628.791	46.12861
629.215	45.75943
629.638	45.94208
630.061	46.13631
630.485	46.18591
630.908	45.78708
631.331	46.35374
631.754	46.7384
632.177	46.69087
632.6	46.43519
633.023	46.74032
633.446	46.95184
633.869	46.88204
634.292	47.5704
634.715	47.97174
635.137	47.67324
635.56	47.91631
635.982	47.99958
636.405	47.85087
636.827	48.10301
637.25	48.28406
637.672	47.50727
638.094	47.96073
638.517	47.58066
638.939	47.91092
639.361	48.73618
639.783	48.84969
640.205	48.73148
640.627	48.9356
641.049	49.10031
641.471	48.802
641.893	49.47723
642.314	49.48282
642.736	48.69424
643.158	49.37903
643.579	49.3313
644.001	49.89654
644.422	50.28193
644.844	50.17528
645.265	50.20889
645.686	49.65591
646.107	50.46081
646.529	50.51566
646.95	51.04479
647.371	50.90147
647.792	50.68582
648.213	50.90784
648.634	51.31727
649.055	51.47791
649.475	51.79756
649.896	51.59804
650.317	51.7128
650.737	51.90135
651.158	52.23889
651.578	52.29457
651.999	52.66124
652.419	52.20215
652.84	52.85077
653.26	52.7577
653.68	52.82489
654.1	53.37554
654.521	53.14693
654.941	53.6881
655.361	53.77495
655.781	53.65439
656.2	54.37552
656.62	54.43829
657.04	54.18146
657.46	53.97474
657.879	54.17721
658.299	54.91282
658.719	54.28222
659.138	54.8264
659.558	54.99291
659.977	55.29375
660.396	55.40342
660.816	55.55143
661.235	55.92189
661.654	55.75524
662.073	55.33864
662.492	55.83458
662.911	55.68008
663.33	55.87235
663.749	56.10562
664.168	56.81008
664.587	57.2536
665.006	57.63323
665.424	57.12211
665.843	57.51212
666.261	57.25651
666.68	57.93448
667.098	57.31672
667.517	57.93411
667.935	57.71383
668.353	57.44618
668.772	57.55205
669.19	57.54073
669.608	57.63902
670.026	57.69186
670.444	57.46154
670.862	57.78777
671.28	57.82845
671.698	57.41276
672.115	57.73656
672.533	56.68517
672.951	58.00543
673.368	57.78484
673.786	57.26155
674.203	57.43385
674.621	57.65737
675.038	57.37226
675.456	57.60308
675.873	57.52772
676.29	57.85978
676.707	57.66851
677.124	57.41807
677.541	57.2935
677.958	57.77767
678.375	57.98314
678.792	56.93355
679.209	57.02493
679.626	57.22387
680.043	57.30747
680.459	56.48533
680.876	56.54234
681.292	56.50578
681.709	56.1764
682.125	56.65655
682.542	56.2188
682.958	55.83911
683.374	56.27931
683.79	55.93109
684.207	55.73068
684.623	55.1661
685.039	55.8505
685.455	55.00557
685.871	55.27797
686.286	55.205
686.702	54.59911
687.118	55.13658
687.534	54.86639
687.949	54.67387
688.365	54.25025
688.781	54.17414
689.196	53.83257
689.611	53.99675
690.027	53.44807
690.442	53.36083
690.857	53.0095
691.273	53.07342
691.688	52.82028
692.103	52.3381
692.518	52.62031
692.933	52.69287
693.348	52.17446
693.763	51.474
694.177	51.70863
694.592	51.64871
695.007	51.19246
695.421	51.28405
695.836	50.94056
696.25	50.7701
696.665	50.64239
697.079	50.39938
697.494	50.06573
697.908	50.03047
698.322	49.48497
698.736	49.28797
699.151	49.63065
699.565	48.81909
699.979	48.7935
700.393	48.88219
700.806	48.59987
701.22	48.48734
701.634	48.37981
702.048	47.31564
702.461	46.91571
702.875	46.68269
703.289	46.68824
703.702	46.57247
704.116	46.29656
704.529	45.50724
704.942	45.85651
705.356	45.20516
705.769	44.90031
706.182	44.69045
706.595	44.50177
707.008	44.30351
707.421	44.30651
707.834	44.29509
708.247	43.6754
708.66	43.27472
709.072	43.19637
709.485	43.43038
709.898	43.16655
710.31	42.9693
710.723	42.72508
711.135	42.09012
711.548	42.19039
711.96	41.46118
712.373	41.37067
712.785	41.09395
713.197	41.08524
713.609	40.26361
714.021	40.23908
714.433	39.71349
714.845	39.92887
715.257	39.11137
715.669	39.07366
716.081	38.70902
716.493	38.47657
716.904	38.446
717.316	38.28129
717.727	38.21016
718.139	38.14202
718.55	38.03301
718.962	37.76066
719.373	37.31556
719.784	36.68862
720.196	36.2598
720.607	36.34993
721.018	35.90086
721.429	35.60212
721.84	35.37123
722.251	35.46226
722.662	35.40988
723.073	35.05495
723.483	34.71418
723.894	34.75775
724.305	34.18313
724.715	34.20735
725.126	34.10638
725.536	34.14634
725.947	33.73324
726.357	33.13712
726.768	33.16777
727.178	32.61284
727.588	32.42052
727.998	32.39981
728.408	32.11787
728.818	32.48246
729.228	32.06804
729.638	32.06957
730.048	31.53826
730.458	31.82194
730.868	31.14979
731.277	31.05425
731.687	30.43424
732.097	30.80886
732.506	30.58075
732.916	30.40059
733.325	30.30535
733.734	30.23141
734.144	29.79031
734.553	29.9947
734.962	29.21077
735.371	29.66912
735.78	29.27738
736.189	28.96056
736.598	28.71735
737.007	28.7832
737.416	28.14963
737.825	28.28532
738.233	28.33097
738.642	28.32357
739.051	27.63538
739.459	28.04154
739.868	27.34715
740.276	27.12279
740.684	27.07241
741.093	26.79906
741.501	27.08451
741.909	26.51148
742.317	27.04405
742.725	26.25738
743.133	26.65589
743.541	25.84895
743.949	26.55952
744.357	26.05631
744.765	26.51706
745.173	25.68297
745.58	26.16445
745.988	25.94806
746.396	25.82911
746.803	25.5189
747.211	25.54468
747.618	25.53259
748.025	25.31853
748.433	25.69115
748.84	25.09153
749.247	25.44608
749.654	24.63744
750.061	25.31658
750.468	24.62051
750.875	24.88446
751.282	24.19867
751.689	24.61
752.096	24.21973
752.502	24.34007
752.909	24.16255
753.316	24.00717
753.722	24.06023
754.129	23.75804
754.535	24.38187
754.941	23.72273
755.348	24.27796
755.754	23.66852
756.16	23.83411
756.566	23.60585
756.972	23.64339
757.378	23.47231
757.784	23.18873
758.19	23.64474
758.596	23.10788
759.002	24.10827
759.408	23.2599
759.813	23.67983
760.219	23.45089
760.624	23.39825
761.03	23.08054
761.435	22.98315
761.841	22.68219
762.246	22.37013
762.651	23.04612
763.057	22.59616
763.462	23.32789
763.867	23.05918
764.272	23.38558
764.677	23.17009
765.082	22.98892
765.487	23.28432
765.892	22.77974
766.296	22.83763
766.701	22.41455
767.106	23.14127
767.51	22.21008
767.915	22.42926
768.319	22.40591
768.724	22.32425
769.128	22.35209
769.532	21.85488
769.936	22.54461
770.341	22.07902
770.745	22.56844
771.149	22.03206
771.553	22.17786
771.957	22.05725
772.361	21.95369
772.764	22.39267
773.168	21.97498
773.572	22.46379
773.976	21.89602
774.379	22.18483
774.783	22.12387
775.186	21.47795
775.59	22.21819
775.993	21.60391
776.396	22.0355
776.8	21.81031
777.203	21.83844
777.606	22.0934
778.009	21.61495
778.412	22.3346
778.815	21.91709
779.218	22.02258
779.621	21.99293
780.023	21.72501
780.426	21.87649
780.829	21.70136
781.231	21.70349
781.634	21.62933
782.036	22.10926
782.439	21.9128
782.841	21.98416
783.244	21.75868
783.646	21.53124
784.048	22.25567
784.45	21.74199
784.852	21.70499
785.254	21.97699
785.656	21.5469
786.058	22.11116
786.46	21.581
786.862	21.65368
787.264	21.89726
787.665	21.28267
788.067	22.03844
788.468	21.05642
788.87	21.74409
789.271	21.89136
789.673	21.99857
790.074	22.01959
790.475	21.22888
790.877	21.95917
791.278	21.62022
791.679	21.72695
792.08	21.97025
792.481	21.79322
792.882	22.23386
793.283	21.7661
793.683	21.89336
794.084	21.86942
794.485	21.43151
794.886	22.14844
795.286	21.44493
795.687	21.85605
796.087	21.75923
796.487	21.56871
796.888	21.47489
797.288	20.95997
797.688	21.89411
798.088	21.50657
798.489	21.5416
798.889	21.69836
799.289	21.66196
799.689	22.12093
800.088	21.51813
800.488	21.50354
800.888	22.14319
801.288	21.53759
801.687	22.23833
802.087	21.99659
802.486	21.90396
802.886	22.01331
803.285	21.13236
803.685	21.59286
804.084	21.64723
804.483	21.90608
804.882	22.07498
805.281	21.49168
805.68	22.1746
806.079	21.62737
806.478	21.54846
806.877	21.38378
807.276	21.70922
807.675	22.05948
808.074	21.96542
808.472	21.45299
808.871	21.98238
809.269	21.89671
809.668	21.84374
810.066	22.05477
810.465	21.87065
810.863	22.41706
811.261	21.39224
811.659	21.64859
812.057	21.96203
812.455	21.77975
812.853	22.14941
813.251	21.55258
813.649	21.57866
814.047	22.11077
814.445	21.03155
814.843	21.91266
815.24	22.0528
815.638	21.2939
816.035	21.83635
816.433	21.2043
816.83	21.58461
817.228	21.99597
817.625	21.26928
818.022	21.98191
818.419	21.62297
818.816	21.25333
819.213	22.08702
819.61	21.33711
820.007	21.88272
820.404	22.19855
820.801	21.66249
821.198	22.40437
821.595	22.15359
821.991	22.0207
822.388	22.72527
822.784	22.65202
823.181	23.08218
823.577	23.59843
823.974	23.35531
824.37	23.46495
824.766	23.28
825.162	22.64365
825.558	23.07189
825.954	22.47568
826.35	22.48617
826.746	22.93341
827.142	22.65192
827.538	22.93428
827.934	22.8156
828.33	22.73747
828.725	23.04755
829.121	22.74449
829.516	22.61778
829.912	23.02314
830.307	22.55145
830.703	22.51175
831.098	22.20632
831.493	21.97212
831.888	22.2201
832.283	21.79267
832.678	21.90462
833.073	22.21779
833.468	22.33622
833.863	22.36513
834.258	22.95997
834.653	22.56088
835.048	22.64074
835.442	23.10809
835.837	22.3476
836.231	22.9054
836.626	23.01436
837.02	22.68336
837.415	23.0237
837.809	23.40379
838.203	22.52358
838.597	22.79323
838.991	21.95587
839.385	22.13986
839.779	22.91878
840.173	22.44403
840.567	22.93172
840.961	23.12015
841.355	23.00768
841.748	22.88276
842.142	23.17742
842.536	23.2706
842.929	23.22446
843.323	24.05262
843.716	23.40562
844.109	23.58854
844.503	23.44861
844.896	23.46764
845.289	23.94059
845.682	23.35122
846.075	23.33121
846.468	23.1119
846.861	23.34926
847.254	23.86184
847.647	23.52193
848.04	23.73928
848.432	24.2419
848.825	24.31133
849.217	23.70384
849.61	23.42585
850.002	24.24716
850.395	23.18728
850.787	24.37241
851.179	23.30772
851.572	23.63466
851.964	23.71233
852.356	24.06414
852.748	24.26543
853.14	23.23617
853.532	23.42503
853.924	23.09816
854.315	23.41196
854.707	23.87493
855.099	23.64533
855.491	23.3961
855.882	23.13516
856.274	23.74294
856.665	24.7788
857.056	24.32817
857.448	24.56685
857.839	24.87452
858.23	23.56107
858.621	24.18225
859.012	23.72824
859.403	23.83291
859.794	23.44746
860.185	24.29633
860.576	24.18831
860.967	23.70043
861.358	23.8175
861.748	23.79239
862.139	23.9102
862.529	23.81285
862.92	23.55922
863.31	23.93507
863.701	23.65356
864.091	24.02805
864.481	23.70939
864.872	23.54875
865.262	22.97872
865.652	23.21848
866.042	23.55537
866.432	22.60674
866.822	24.28383
867.211	23.72419
867.601	23.1213
867.991	24.00866
868.381	23.84674
868.77	23.29086
869.16	23.89991
869.549	23.89014
869.939	23.43244
870.328	23.63304
870.717	23.62531
871.106	23.30059
871.496	23.34971
871.885	23.49829
872.274	22.91804
872.663	23.77009
873.052	23.92147
873.441	23.35024
873.829	23.21867
874.218	23.31853
874.607	22.92449
874.996	23.02683
875.384	23.64911
875.773	22.55596
876.161	22.42992
876.549	23.27466
876.938	22.75325
877.326	22.11864
877.714	22.93109
878.102	22.38237
878.491	22.88133
878.879	22.94326
879.267	22.6112
879.655	22.48017
880.042	23.30763
880.43	23.29234
880.818	22.99749
881.206	23.53054
881.593	23.73253
881.981	23.43915
882.368	23.68519
882.756	23.67326
883.143	23.48249
883.53	23.23105
883.918	23.53861
884.305	22.78294
884.692	23.17496
885.079	23.26348
885.466	23.23497
885.853	23.58093
886.24	23.08293
886.627	23.02647
887.014	23.22713
887.4	23.39544
887.787	22.76318
888.174	23.16178
888.56	23.9403
888.947	23.8912
889.333	22.9464
889.719	23.5835
890.106	23.22844
890.492	22.59065
890.878	23.23929
891.264	22.77672
891.65	22.65059
892.036	22.31177
892.422	23.1447
892.808	22.62361
893.194	22.82854
893.58	22.57024
893.965	22.99588
894.351	22.31975
894.736	22.92888
895.122	22.99175
895.507	23.16317
895.893	22.90079
896.278	23.07715
896.663	23.4371
897.049	22.73723
897.434	23.2707
897.819	23.33833
898.204	22.91131
898.589	23.1271
898.974	22.97616
899.359	22.39065
899.743	22.73748
900.128	22.67301
900.513	22.52457
900.897	22.57919
901.282	22.83361
901.667	22.26371
902.051	22.68171
902.435	23.00235
902.82	22.71879
903.204	22.31661
903.588	22.66342
903.972	22.33997
904.356	22.38389
904.74	22.49188
905.124	23.46538
905.508	23.05038
905.892	22.63318
906.276	23.229
906.659	22.63391
907.043	22.95143
907.427	22.74039
907.81	23.31261
908.194	23.09972
908.577	23.23089
908.96	23.07118
909.344	22.75387
909.727	22.2913
910.11	23.60162
910.493	23.20936
910.876	22.69158
911.259	22.59438
911.642	23.25612
912.025	22.66614
912.408	22.3059
912.79	22.68839
913.173	22.05699
913.556	22.41548
913.938	22.57279
914.321	22.48788
914.703	21.67505
915.086	21.88255
915.468	22.30878
915.85	22.11365
916.232	21.96207
916.614	22.88228
916.996	22.77506
917.378	22.20848
917.76	22.11634
918.142	22.23044
918.524	22.54984
918.906	22.47491
919.288	21.89673
919.669	22.3386
920.051	21.70379
920.432	22.39426
920.814	21.90774
921.195	22.78603
921.577	22.38197
921.958	23.44001
922.339	22.84737
922.72	22.1167
923.101	21.60308
923.482	23.28223
923.863	21.66703
924.244	22.19134
924.625	23.80839
925.006	21.93488
925.387	21.84645
925.767	22.61287
926.148	22.32383
926.528	22.90475
926.909	22.31975
927.289	22.24556
927.67	23.53205
928.05	21.48222
928.43	22.44495
928.81	22.64243
929.191	21.75755
929.571	22.53902
929.951	22.25145
930.331	21.72401
930.71	22.30469
931.09	21.74336
931.47	23.05236
931.85	22.5695
932.229	22.04527
932.609	21.46288
932.988	23.42041
933.368	20.73292
933.747	21.66176
934.127	22.42843
934.506	22.0642
934.885	21.07525
935.264	21.24614
935.643	22.84251
936.022	22.24138
936.401	20.51274
936.78	21.67437
937.159	21.66129
937.538	21.73185
937.916	22.09721
938.295	22.02672
938.674	21.462
939.052	22.06197
939.431	21.63028
939.809	21.94676
940.187	21.33303
940.566	20.87627
940.944	21.54094
941.322	22.36636
941.7	22.00876
942.078	22.30449
942.456	21.57688
942.834	22.25085
943.212	21.66881
943.59	22.17071
943.968	21.97158
944.345	22.25862
944.723	20.49908
945.1	20.06448
945.478	22.79751
945.855	20.94587
946.233	21.48541
946.61	21.76017
946.987	22.5517
947.365	22.00997
947.742	21.63784
948.119	22.32848
948.496	21.89533
948.873	21.53778
949.25	21.23046
949.626	22.19093
950.003	19.8134
950.38	20.00105
950.756	22.44918
951.133	21.55127
951.51	19.85152
951.886	19.84887
952.262	21.77329
952.639	21.82015
953.015	21.66455
953.391	21.40154
953.767	20.06594
954.143	22.10239
954.519	20.48247
954.895	21.30735
955.271	22.23187
955.647	21.41444
956.023	21.9414
956.399	22.14422
956.774	21.93889
957.15	20.0614
957.525	21.37103
957.901	21.27839
958.276	20.98644
958.652	20.0972
959.027	20.10396
959.402	19.98521
959.777	21.57003
960.152	21.88121
960.527	20.80653
960.902	21.25237
961.277	20.71811
961.652	21.17479
962.027	20.36551
962.402	19.35465
962.776	19.92873
963.151	21.32396
963.525	21.43714
963.9	21.19517
964.274	19.15462
964.649	20.03664
965.023	18.70111
965.397	20.56307
965.771	19.27986
966.146	20.43654
966.52	22.42475
966.894	19.00628
967.268	20.99226
967.641	18.18653
968.015	19.19153
968.389	21.66618
968.763	20.57472
969.136	19.80825
969.51	21.0485
969.883	21.63999
970.257	20.96423
970.63	21.84308
971.003	21.09881
971.377	20.65275
971.75	21.0096
972.123	20.2598
972.496	20.574
972.869	21.88089
973.242	21.71375
973.615	18.12916
973.988	21.62237
974.36	19.41691
974.733	21.19707
975.106	21.37923
975.478	19.77923
975.851	19.87068
976.223	20.97841
976.596	20.05445
976.968	19.55002
977.34	21.14036
977.712	19.27812
978.085	19.18937
978.457	19.34903
978.829	20.17997
979.201	19.13793
979.573	18.63056
979.944	19.0683
980.316	20.04444
980.688	19.82656
981.059	20.77821
981.431	20.18383
981.803	19.8099
982.174	20.89203
982.545	20.50438
982.917	19.47572
983.288	20.74245
983.659	21.04048
984.03	18.73864
984.401	19.21584
984.772	17.0794
985.143	18.14507
985.514	19.12861
985.885	18.18717
986.256	18.32172
986.627	19.60148
986.997	18.84255
987.368	20.71343
987.738	19.14167
988.109	17.97346
988.479	17.4179
988.85	19.61498
989.22	20.16787
989.59	18.87762
989.96	19.75784
990.33	19.06642
990.7	19.18271
991.07	19.45011
991.44	18.37688
991.81	17.51388
992.18	19.18483
992.549	19.31406
992.919	18.16352
993.289	18.55875
993.658	17.83294
994.028	18.48099
994.397	19.52536
994.766	17.78772
995.136	19.11703
995.505	20.67154
995.874	18.17337
996.243	18.29396
996.612	18.60673
996.981	17.33474
997.35	18.3871
997.719	19.31744
998.088	18.72565
998.456	19.18493
998.825	18.70875
999.194	16.4628
999.562	21.4432
999.931	20.0493
1000.299	20.05497
1000.667	20.07754
1001.036	20.88252
1001.404	20.34717
1001.772	21.10192
1002.14	17.67027
1002.508	19.3566
1002.876	19.94607
1003.244	20.3129
1003.612	19.43151
1003.98	21.83037
1004.347	21.44778
1004.715	17.795
1005.083	17.43503
1005.45	18.17068
1005.818	18.51127
1006.185	19.47317
1006.552	19.35266
1006.92	20.2827
1007.287	18.49068
1007.654	19.24722
1008.021	18.47791
1008.388	21.42019
1008.755	15.91845
1009.122	19.25191
1009.489	24.30555
1009.856	23.78061
1010.222	19.60871
1010.589	18.74068
1010.956	19.71685
1011.322	19.51382
1011.689	18.65137
1012.055	23.12202
1012.421	19.77347
1012.788	20.12724
1013.154	21.00284
1013.52	18.00437
1013.886	16.24494
1014.252	16.35226
1014.618	20.67248
1014.984	22.4892
1015.35	18.84226
1015.716	19.78415
1016.081	23.60015
1016.447	24.24053
1016.813	15.81699
1017.178	21.2934
1017.544	20.60115
1017.909	23.44557
1018.274	22.42804
1018.64	19.547
1019.005	20.60189
1019.37	22.48645
1019.735	23.12013
1020.1	22.77129
1020.465	26.11118
1020.83	19.26435
1021.195	23.5905
1021.56	20.46071
1021.924	28.84198
1022.289	22.66968
1022.654	17.7004
1023.018	18.16479
1023.383	22.78005
1023.747	14.4793
1024.111	14.72277
1024.476	19.49852
1024.84	21.07699
1025.204	23.10169
1025.568	27.69432
1025.932	25.98929
1026.296	23.76373
1026.66	30.11897
1027.024	24.78307
1027.387	17.52289
1027.751	17.35112
1028.115	25.57396
1028.478	24.41762
1028.842	26.7956
1029.205	28.55201
1029.569	19.71702
1029.932	20.0317
1030.295	16.87336
1030.659	23.75994
1031.022	21.76171
1031.385	27.07209
1031.748	22.05421
1032.111	22.79319
1032.474	27.83653
1032.836	18.03348
1033.199	24.61214
1033.562	25.29195
1033.924	24.29625
1034.287	8.57465
1034.65	31.8693
1035.012	29.17664
1035.374	18.48682
1035.737	25.59928
1036.099	30.59224
1036.461	31.04389
1036.823	1.43807
1037.185	29.08901
1037.547	26.13212
1037.909	24.9068
1038.271	20.21192
1038.633	19.10255
1038.995	5.49171
1039.356	11.25702
1039.718	42.378
1040.08	38.70934
1040.441	17.49995
1040.803	35.06257
1041.164	18.27567
1041.525	24.03634
1041.886	35.0623
1042.248	30.39302
1042.609	17.19644
1042.97	41.42222
1043.331	30.4242
1043.692	11.489
1044.053	18.86796
1044.413	20.73197
1044.774	15.20242
1045.135	22.07988
1045.495	30.89982
1045.856	28.61047
1046.216	21.58501
1046.577	33.69365
1046.937	12.17857
1047.298	28.56294
