Data from 1016water_Reflection__22__20-42-13-419.txt Node

Date: Thu Oct 16 20:42:13 AST 2025
User: lin
Spectrometer: SR600411
Trigger mode: 0
Integration Time (sec): 5.601500E-2
Scans to average: 5
Nonlinearity correction enabled: true
Boxcar width: 0
Storing dark spectrum: false
XAxis mode: Wavelengths
Number of Pixels in Spectrum: 2048
>>>>>Begin Spectral Data<<<<<
187.982	45.69016
188.456	56.15014
188.93	68.50698
189.403	53.72702
189.877	56.74416
190.351	73.79036
190.825	50.72182
191.298	65.58883
191.772	61.71702
192.246	65.54938
192.719	45.03415
193.193	57.06109
193.666	50.62665
194.139	72.99219
194.613	44.47198
195.086	70.72968
195.559	60.27567
196.033	66.96414
196.506	63.11123
196.979	59.2994
197.452	58.90661
197.925	62.09091
198.398	66.38143
198.871	58.64867
199.344	67.29411
199.816	54.35376
200.289	59.69898
200.762	64.03856
201.235	56.96826
201.707	54.62408
202.18	54.64272
202.652	72.44849
203.125	57.23968
203.597	85.42674
204.07	50.85849
204.542	64.59867
205.014	42.76904
205.486	75.26196
205.959	62.56153
206.431	62.34504
206.903	43.23604
207.375	40.76301
207.847	34.50068
208.319	62.03199
208.791	19.2814
209.263	45.2585
209.734	75.36821
210.206	78.42795
210.678	71.995
211.15	49.57394
211.621	42.2157
212.093	56.07386
212.564	87.9607
213.036	56.47622
213.507	47.36373
213.979	39.40957
214.45	31.7263
214.921	66.95937
215.392	55.85043
215.864	53.69838
216.335	55.21731
216.806	49.5874
217.277	105.49555
217.748	53.16838
218.219	86.90287
218.69	66.21847
219.161	21.10814
219.631	62.2754
220.102	48.95833
220.573	65.28382
221.043	81.2471
221.514	18.5538
221.985	55.55071
222.455	60.76309
222.926	51.42337
223.396	44.22568
223.866	75.40535
224.337	29.40756
224.807	72.72295
225.277	46.90959
225.747	55.8757
226.217	46.08129
226.687	63.42667
227.157	65.47243
227.627	23.45391
228.097	39.31071
228.567	58.24746
229.037	58.64885
229.507	33.01422
229.977	104.95993
230.446	55.04052
230.916	49.10159
231.386	50.55739
231.855	47.05295
232.325	50.82738
232.794	44.62217
233.263	49.99355
233.733	49.6
234.202	66.6627
234.671	29.89287
235.14	44.86797
235.61	31.3509
236.079	-6.66603
236.548	66.66283
237.017	84.74274
237.486	57.49419
237.955	77.21243
238.424	62.63314
238.892	63.88395
239.361	95.65142
239.83	41.7974
240.299	49.99336
240.767	104.65199
241.236	28.84192
241.704	59.28663
242.173	105.00083
242.641	37.20532
243.109	37.35841
243.578	46.26536
244.046	74.3078
244.514	95.50486
244.982	41.66088
245.451	56.33456
245.919	60.52271
246.387	66.6627
246.855	100
247.323	80.31098
247.791	66.66323
248.258	34.64893
248.726	68.05245
249.194	74.99584
249.662	80.59494
250.129	64.02988
250.597	50.85632
251.064	79.40846
251.532	75.75277
251.999	64.90713
252.467	73.43503
252.934	51.88155
253.401	89.35993
253.869	55.55159
254.336	58.81945
254.803	48.97474
255.27	70.72834
255.737	9.41033
256.204	67.30316
256.671	63.43659
257.138	72.21936
257.605	71.69598
258.072	49.99356
258.539	54.36386
259.005	59.45592
259.472	100
259.939	85.71191
260.405	94.11709
260.872	28.74675
261.338	46.66148
261.805	87.90061
262.271	51.6333
262.737	61.53358
263.203	83.50251
263.67	58.75822
264.136	64.36386
264.602	79.48466
265.068	55.80975
265.534	83.67081
266	95.91761
266.466	12.11912
266.932	100
267.398	71.06945
267.864	53.89995
268.329	52.82495
268.795	66.38129
269.261	72.59986
269.726	68.05245
270.192	58.32697
270.657	58.61511
271.123	46.42305
271.588	72.82248
272.053	85.50555
272.519	72.43591
272.984	24.61299
273.449	43.33041
273.914	73.99619
274.379	47.46985
274.844	53.76836
275.309	23.07372
275.774	73.2634
276.239	100.84054
276.704	82.87976
277.169	8.33206
277.634	89.68894
278.098	48.47994
278.563	40.36177
279.028	89.41017
279.492	49.13218
279.957	76.13319
280.421	38.70676
280.886	47.51975
281.35	70.29285
281.814	100
282.279	-9.22947
282.743	71.01167
283.207	58.03031
283.671	38.51886
284.135	55.99389
284.599	52.42209
285.063	42.30266
285.527	41.76834
285.991	73.32984
286.455	-7.05755
286.919	90.4744
287.382	53.84039
287.846	54.99509
288.31	120.99173
288.773	51.38532
289.237	89.18777
289.7	37.73091
290.164	68.26476
290.627	72.36541
291.09	76.234
291.554	68.12795
292.017	82.82549
292.48	39.24727
292.943	41.89969
293.406	85.54013
293.869	25.2841
294.332	73.58082
294.795	17.28166
295.258	57.27656
295.721	27.18042
296.184	155.94241
296.646	16.66452
297.109	75.67297
297.572	89.28412
298.034	75.75517
298.497	65.54089
298.959	62.81329
299.422	86.76316
299.884	58.87337
300.346	42.52452
300.809	22.38575
301.271	73.4656
301.733	88.23389
302.195	104.82011
302.657	107.29316
303.119	51.51188
303.581	30.76539
304.043	71.94794
304.505	58.75823
304.967	77.65634
305.429	79.10009
305.891	29.68485
306.352	81.15733
306.814	34.71899
307.275	72.87904
307.737	10.34376
308.198	74.80426
308.66	59.5198
309.121	60.56002
309.583	49.32961
310.044	5.79635
310.505	80.18534
310.966	18.51609
311.428	70.23461
311.889	23.84928
312.35	78.257
312.811	54.25722
313.272	68.62528
313.733	43.41735
314.193	71.54658
314.654	32.25404
315.115	41.56875
315.576	66.6631
316.036	64.51191
316.497	54.4265
316.957	81.81494
317.418	26.66492
317.878	54.69511
318.339	89.87199
318.799	39.99477
319.259	90.32151
319.72	49.99653
320.18	55.35165
320.64	81.94233
321.1	49.99564
321.56	80.80504
322.02	43.26417
322.48	100
322.94	35.62823
323.4	80.84818
323.86	62.49479
324.319	59.71879
324.779	64.05958
325.239	42.33697
325.698	50.64553
326.158	85.18316
326.617	87.49861
327.077	40.67514
327.536	78.74735
327.996	120.69253
328.455	111.76692
328.914	88.37034
329.373	31.99676
329.832	74.99643
330.292	95.6516
330.751	74.68059
331.21	65.65214
331.668	101.44948
332.127	73.07388
332.586	118.75212
333.045	37.10891
333.504	55.63259
333.962	46.15128
334.421	88.23389
334.88	34.4235
335.338	85.97875
335.797	54.66298
336.255	78.37589
336.714	70.5096
337.172	56.29671
337.63	15.68494
338.088	70.4196
338.547	68.67116
339.005	71.08095
339.463	46.84137
339.921	42.21787
340.379	66.6631
340.837	60.86522
341.295	51.60983
341.753	82.18755
342.21	53.08242
342.668	65.85
343.126	106.49456
343.584	59.45416
344.041	75.7244
344.499	57.7929
344.956	22.49723
345.414	76.34076
345.871	19.60466
346.328	27.84496
346.786	70.3341
347.243	55.66536
347.7	40.29531
348.157	100.92613
348.614	71.24675
349.071	75.17209
349.528	90.73894
349.985	45.68395
350.442	88.88677
350.899	23.90972
351.356	106.02515
351.812	52.24676
352.269	63.29773
352.726	44.44048
353.182	69.13238
353.639	66.66178
354.095	67.81232
354.552	79.24183
355.008	55.73174
355.465	70.29285
355.921	56.34306
356.377	47.56773
356.833	52.86927
357.289	75.64797
357.745	96.55115
358.201	44.67395
358.657	57.97744
359.113	54.63441
359.569	67.71467
360.025	47.39498
360.481	36.49007
360.937	60.41894
361.392	54.10928
361.848	74.54987
362.303	79.38507
362.759	77.83152
363.214	69.18138
363.67	61.41872
364.125	56.91046
364.581	60.22417
365.036	57.81499
365.491	42.33519
365.946	54.3869
366.401	59.23202
366.856	55.83961
367.311	62.36333
367.766	53.46282
368.221	54.39476
368.676	60.44481
369.131	57.87279
369.586	57.71913
370.041	56.50242
370.495	51.79142
370.95	54.90752
371.404	56.1627
371.859	51.16701
372.313	54.50466
372.768	54.47092
373.222	51.00414
373.676	53.967
374.131	56.01353
374.585	50.02212
375.039	55.66084
375.493	55.22295
375.947	53.88426
376.401	57.38947
376.855	55.6641
377.309	55.58636
377.763	53.82362
378.217	55.21534
378.67	55.83468
379.124	57.33344
379.578	54.29342
380.031	56.76028
380.485	53.96761
380.938	56.02044
381.392	53.54436
381.845	53.84602
382.299	54.44933
382.752	55.05048
383.205	55.04882
383.658	53.63
384.111	54.07696
384.564	55.55686
385.018	56.46373
385.471	55.20929
385.923	53.46973
386.376	55.35837
386.829	56.16891
387.282	56.09723
387.735	55.53773
388.187	56.59747
388.64	55.02329
389.093	56.27772
389.545	56.39971
389.998	55.95946
390.45	56.03639
390.902	55.38202
391.355	54.80013
391.807	56.07963
392.259	55.45414
392.711	55.87451
393.163	56.11904
393.615	56.42907
394.068	56.86285
394.519	56.60112
394.971	55.5597
395.423	55.62682
395.875	55.20805
396.327	56.0279
396.779	56.99144
397.23	56.17064
397.682	56.69325
398.133	55.56498
398.585	55.55774
399.036	55.72837
399.488	54.84147
399.939	56.00155
400.39	54.86598
400.842	55.06449
401.293	54.25737
401.744	54.6279
402.195	55.49404
402.646	54.52953
403.097	53.90821
403.548	53.82824
403.999	54.56395
404.45	53.87794
404.9	54.28057
405.351	54.35589
405.802	54.08603
406.253	53.50716
406.703	53.83887
407.154	53.66356
407.604	53.49642
408.055	52.82898
408.505	52.83648
408.955	51.94364
409.406	52.02347
409.856	52.02872
410.306	52.30044
410.756	51.80664
411.206	52.32651
411.656	51.54764
412.106	50.97499
412.556	51.25029
413.006	50.94981
413.456	51.14849
413.905	50.05652
414.355	50.42978
414.805	50.73577
415.254	50.24338
415.704	50.40191
416.153	50.86006
416.603	50.12286
417.052	50.45666
417.502	49.46442
417.951	50.10995
418.4	49.54198
418.849	48.62214
419.298	49.03241
419.748	48.63586
420.197	48.50442
420.646	48.09165
421.094	47.82418
421.543	48.19032
421.992	48.101
422.441	47.21323
422.89	48.099
423.338	47.35167
423.787	47.3546
424.236	47.23956
424.684	46.88401
425.133	46.78294
425.581	46.60082
426.029	46.78104
426.478	47.06012
426.926	47.01601
427.374	46.47
427.822	46.35621
428.27	46.16638
428.718	45.6637
429.166	46.72925
429.614	46.4131
430.062	46.0213
430.51	46.40746
430.958	46.83802
431.406	45.86874
431.853	45.84722
432.301	45.60521
432.749	45.63
433.196	44.70819
433.644	45.47187
434.091	45.05697
434.538	45.40284
434.986	44.76662
435.433	45.52778
435.88	45.22753
436.327	45.0378
436.775	44.85459
437.222	44.61508
437.669	44.86172
438.116	44.7568
438.563	44.47343
439.009	44.79221
439.456	45.15724
439.903	45.37707
440.35	45.14893
440.796	44.69815
441.243	44.89418
441.689	45.02034
442.136	44.996
442.582	44.93155
443.029	44.99667
443.475	44.98469
443.921	44.74856
444.368	45.17216
444.814	44.58547
445.26	44.01632
445.706	44.74146
446.152	45.23899
446.598	44.55871
447.044	44.85242
447.49	44.66731
447.936	44.58313
448.381	44.84599
448.827	44.86246
449.273	44.8626
449.718	45.02484
450.164	44.96307
450.61	44.53263
451.055	44.7383
451.5	44.92138
451.946	45.15566
452.391	45.4397
452.836	45.27879
453.282	45.10489
453.727	45.20408
454.172	45.13202
454.617	45.46697
455.062	45.60136
455.507	45.54164
455.952	45.66209
456.396	45.38107
456.841	45.75674
457.286	45.85191
457.731	46.32806
458.175	46.0356
458.62	46.10349
459.064	46.04875
459.509	46.3485
459.953	46.02767
460.398	46.32079
460.842	46.40778
461.286	46.52938
461.73	46.67231
462.174	46.75552
462.619	46.67412
463.063	47.6123
463.507	47.18468
463.951	47.68344
464.394	47.43659
464.838	47.80352
465.282	47.95402
465.726	47.54823
466.17	48.08832
466.613	47.81966
467.057	48.00942
467.5	48.5251
467.944	48.73622
468.387	49.0302
468.831	48.96166
469.274	49.12092
469.717	49.51609
470.16	50.02544
470.603	50.3795
471.047	50.62751
471.49	50.71253
471.933	50.76643
472.376	51.0609
472.818	51.2783
473.261	51.0262
473.704	50.93309
474.147	51.42714
474.59	51.69869
475.032	51.68637
475.475	52.008
475.917	52.13154
476.36	52.07668
476.802	52.53238
477.245	52.57955
477.687	53.21909
478.129	52.98737
478.571	53.51963
479.013	53.54474
479.456	53.68586
479.898	53.57603
480.34	53.89245
480.782	53.90987
481.224	54.16764
481.665	53.56672
482.107	54.15174
482.549	54.17184
482.991	54.24576
483.432	54.52232
483.874	54.78664
484.315	54.47314
484.757	54.72169
485.198	54.98357
485.64	55.20312
486.081	55.10725
486.522	55.30405
486.963	55.66508
487.405	55.54739
487.846	56.11404
488.287	55.4643
488.728	55.74683
489.169	56.15342
489.61	55.78225
490.05	56.30183
490.491	56.80028
490.932	56.46495
491.373	56.64042
491.813	56.72947
492.254	56.62585
492.694	56.70928
493.135	56.95444
493.575	56.43996
494.016	56.1474
494.456	56.71048
494.896	56.45048
495.336	56.75895
495.777	57.05735
496.217	57.42356
496.657	56.85872
497.097	57.08313
497.537	56.64305
497.977	56.794
498.416	57.28109
498.856	57.20375
499.296	57.44542
499.736	57.41959
500.175	57.2974
500.615	57.0976
501.054	57.965
501.494	57.2996
501.933	57.9729
502.373	58.20895
502.812	58.55723
503.251	58.63285
503.69	58.52817
504.129	59.23837
504.569	59.26977
505.008	59.58054
505.447	59.16187
505.886	59.58768
506.324	59.7251
506.763	59.77599
507.202	59.52146
507.641	60.14088
508.079	60.26496
508.518	60.56539
508.957	60.62674
509.395	60.68443
509.834	61.1718
510.272	61.16632
510.71	61.74904
511.149	61.94002
511.587	62.03175
512.025	61.99271
512.463	61.81016
512.901	61.74785
513.339	62.162
513.777	62.9022
514.215	62.92238
514.653	62.76495
515.091	63.75093
515.529	63.17885
515.966	63.35863
516.404	63.57566
516.842	63.87672
517.279	64.23742
517.717	63.99208
518.154	64.31329
518.592	64.01428
519.029	64.34759
519.466	64.92528
519.904	65.20651
520.341	65.36962
520.778	65.66011
521.215	66.03251
521.652	65.55481
522.089	65.5577
522.526	65.97254
522.963	65.97536
523.399	65.86944
523.836	67.18703
524.273	66.90047
524.71	67.65073
525.146	67.98621
525.583	67.43051
526.019	68.06688
526.456	67.91467
526.892	68.1639
527.328	68.74253
527.765	68.48324
528.201	68.67315
528.637	68.8718
529.073	69.25282
529.509	69.42823
529.945	69.73273
530.381	69.58243
530.817	69.75327
531.253	70.04767
531.689	70.08431
532.124	70.37438
532.56	70.03043
532.996	70.68071
533.431	70.46674
533.867	70.97334
534.302	70.82109
534.738	71.63393
535.173	71.57143
535.608	71.65604
536.044	72.10289
536.479	72.09715
536.914	71.86835
537.349	71.7508
537.784	71.88346
538.219	71.81221
538.654	71.76181
539.089	71.47628
539.524	71.51641
539.959	71.45628
540.393	71.9234
540.828	72.48213
541.263	72.84806
541.697	72.84664
542.132	72.32343
542.566	72.45734
543.001	72.2206
543.435	72.66522
543.869	72.68403
544.303	72.81055
544.738	73.03835
545.172	72.64848
545.606	72.84118
546.04	72.81989
546.474	72.66343
546.908	72.76948
547.342	72.16822
547.775	73.07313
548.209	72.40932
548.643	72.68361
549.077	73.04384
549.51	72.34795
549.944	72.38519
550.377	71.95879
550.811	72.14609
551.244	71.27914
551.677	71.66344
552.111	71.77198
552.544	71.21206
552.977	70.55214
553.41	70.53378
553.843	70.60367
554.276	70.45268
554.709	69.36243
555.142	69.8794
555.575	69.43528
556.008	69.82563
556.44	68.99926
556.873	68.91753
557.306	68.67856
557.738	68.00243
558.171	68.45164
558.603	67.71432
559.036	67.46635
559.468	66.94519
559.9	67.25089
560.333	66.84175
560.765	66.92213
561.197	67.15465
561.629	66.53285
562.061	66.37708
562.493	66.54882
562.925	66.10012
563.357	65.86291
563.789	65.43255
564.22	65.57016
564.652	64.90368
565.084	65.26487
565.515	64.81588
565.947	64.63039
566.378	64.47668
566.81	64.53993
567.241	64.18473
567.672	64.42635
568.104	64.16633
568.535	63.80397
568.966	63.31107
569.397	62.97424
569.828	62.54352
570.259	61.98542
570.69	61.72215
571.121	61.6176
571.552	61.20119
571.983	61.2568
572.414	60.86356
572.844	60.7674
573.275	60.5111
573.705	60.27856
574.136	60.38948
574.566	60.4004
574.997	59.84839
575.427	60.63618
575.857	59.89152
576.288	59.45052
576.718	59.80033
577.148	59.66884
577.578	59.02401
578.008	58.47375
578.438	58.72281
578.868	59.05697
579.298	58.28458
579.728	57.93627
580.157	57.76708
580.587	57.61655
581.017	57.20125
581.446	56.77739
581.876	56.81231
582.305	56.21605
582.735	56.281
583.164	56.32917
583.593	55.91436
584.023	55.93652
584.452	55.90293
584.881	55.66431
585.31	55.64825
585.739	55.09744
586.168	54.87548
586.597	55.01798
587.026	54.20505
587.455	53.72454
587.884	54.23297
588.312	53.92989
588.741	53.36876
589.17	53.00124
589.598	53.01305
590.027	52.75893
590.455	52.43395
590.884	52.43198
591.312	52.16208
591.74	51.89638
592.168	52.24921
592.597	52.07183
593.025	51.86139
593.453	51.58852
593.881	51.7991
594.309	51.23675
594.737	51.03484
595.165	51.01537
595.592	51.00724
596.02	51.07061
596.448	50.48175
596.875	50.52359
597.303	50.10243
597.73	49.8548
598.158	49.97057
598.585	50.34174
599.013	49.89387
599.44	49.68589
599.867	49.14194
600.294	49.43404
600.722	48.86483
601.149	48.90271
601.576	49.23363
602.003	48.82184
602.43	48.5318
602.856	48.38489
603.283	48.04124
603.71	48.39641
604.137	48.22014
604.563	48.45142
604.99	48.62388
605.416	48.54615
605.843	48.23939
606.269	48.07388
606.696	48.20627
607.122	48.07064
607.548	47.99182
607.975	47.29936
608.401	47.68845
608.827	47.41887
609.253	47.60388
609.679	47.33127
610.105	46.96349
610.531	47.19337
610.956	47.17088
611.382	46.70883
611.808	47.2824
612.234	46.98739
612.659	46.76863
613.085	46.71498
613.51	46.7121
613.936	46.4707
614.361	47.06008
614.786	46.73847
615.212	46.60358
615.637	46.72072
616.062	46.54101
616.487	46.57629
616.912	46.52898
617.337	46.60128
617.762	46.76773
618.187	46.43807
618.612	46.49283
619.037	46.26996
619.461	46.32607
619.886	46.2977
620.311	46.41379
620.735	46.47278
621.16	46.53764
621.584	46.76295
622.008	46.54017
622.433	46.57029
622.857	46.02289
623.281	46.08332
623.705	45.98787
624.13	46.3749
624.554	45.64169
624.978	45.96001
625.402	45.63715
625.826	45.4953
626.249	45.8082
626.673	45.69587
627.097	45.90246
627.521	45.95049
627.944	46.08018
628.368	45.76821
628.791	46.11921
629.215	46.24866
629.638	45.99128
630.061	46.19297
630.485	46.42273
630.908	46.37625
631.331	46.3222
631.754	46.78054
632.177	47.03953
632.6	46.83226
633.023	47.01546
633.446	47.27075
633.869	47.15334
634.292	47.66385
634.715	48.09506
635.137	47.69324
635.56	47.9713
635.982	48.35706
636.405	48.14159
636.827	48.29408
637.25	48.3599
637.672	47.81894
638.094	47.91095
638.517	47.72263
638.939	48.15297
639.361	48.4906
639.783	49.11424
640.205	49.07419
640.627	48.87406
641.049	48.83928
641.471	49.05257
641.893	49.44292
642.314	49.41166
642.736	49.25819
643.158	49.52123
643.579	49.66456
644.001	49.54751
644.422	50.17661
644.844	50.21451
645.265	49.95992
645.686	50.36073
646.107	50.5615
646.529	50.31701
646.95	50.68722
647.371	50.41551
647.792	50.93612
648.213	51.21082
648.634	51.10596
649.055	51.52348
649.475	51.86639
649.896	51.50329
650.317	51.64091
650.737	52.10565
651.158	52.5206
651.578	52.04491
651.999	52.97595
652.419	52.62664
652.84	52.78855
653.26	52.9274
653.68	52.94376
654.1	53.00865
654.521	53.02733
654.941	53.78961
655.361	54.06294
655.781	54.21205
656.2	54.29814
656.62	54.36059
657.04	54.42593
657.46	54.51409
657.879	53.99595
658.299	54.8198
658.719	54.60163
659.138	54.61815
659.558	55.18491
659.977	55.30739
660.396	55.35368
660.816	55.43187
661.235	55.35592
661.654	55.38026
662.073	55.19827
662.492	55.48174
662.911	55.75107
663.33	56.1463
663.749	56.51802
664.168	56.54412
664.587	57.03521
665.006	57.47072
665.424	56.94886
665.843	57.22828
666.261	57.15048
666.68	57.15181
667.098	57.3833
667.517	57.25742
667.935	57.42017
668.353	57.51232
668.772	57.24201
669.19	56.99998
669.608	57.33999
670.026	57.52096
670.444	57.11359
670.862	57.07297
671.28	57.92206
671.698	57.81505
672.115	57.2419
672.533	57.13761
672.951	57.65127
673.368	57.35806
673.786	57.34855
674.203	57.82394
674.621	57.70903
675.038	57.12002
675.456	57.63405
675.873	57.21483
676.29	57.24827
676.707	57.3426
677.124	57.48535
677.541	57.42189
677.958	57.80621
678.375	57.5316
678.792	56.65289
679.209	56.91654
679.626	56.85464
680.043	56.99565
680.459	56.66985
680.876	56.67933
681.292	56.43466
681.709	55.97606
682.125	55.93198
682.542	56.01855
682.958	55.62095
683.374	55.64494
683.79	55.58572
684.207	55.398
684.623	54.54033
685.039	55.24971
685.455	54.83495
685.871	54.89288
686.286	55.04276
686.702	54.37314
687.118	54.75393
687.534	54.35843
687.949	54.4211
688.365	54.00548
688.781	54.31987
689.196	53.70966
689.611	53.69619
690.027	53.5678
690.442	53.26365
690.857	53.01129
691.273	52.99909
691.688	52.6364
692.103	52.57118
692.518	52.36367
692.933	52.26995
693.348	52.38526
693.763	51.49085
694.177	51.43694
694.592	51.39644
695.007	50.86943
695.421	51.31809
695.836	50.6567
696.25	51.09669
696.665	50.43119
697.079	50.61835
697.494	50.08085
697.908	49.78974
698.322	49.70133
698.736	49.40556
699.151	49.24592
699.565	48.86287
699.979	48.77264
700.393	48.22141
700.806	48.66779
701.22	48.26214
701.634	48.40832
702.048	47.87675
702.461	47.2248
702.875	46.89882
703.289	46.62148
703.702	47.19681
704.116	46.17595
704.529	45.86683
704.942	45.72627
705.356	45.69977
705.769	45.00188
706.182	44.95628
706.595	45.00828
707.008	44.08831
707.421	44.10626
707.834	43.976
708.247	43.82906
708.66	43.58942
709.072	43.34804
709.485	43.07178
709.898	43.13487
710.31	42.51343
710.723	42.56644
711.135	42.14573
711.548	42.23876
711.96	41.68736
712.373	41.66809
712.785	40.91131
713.197	40.86455
713.609	40.22881
714.021	40.12032
714.433	39.71702
714.845	39.65714
715.257	39.17573
715.669	38.9884
716.081	38.7395
716.493	38.77878
716.904	38.28296
717.316	38.29593
717.727	38.32801
718.139	38.29965
718.55	38.16709
718.962	37.59537
719.373	37.70166
719.784	36.76312
720.196	36.45529
720.607	36.1241
721.018	36.2094
721.429	35.69078
721.84	35.37929
722.251	35.39961
722.662	35.34659
723.073	35.22257
723.483	35.16961
723.894	34.68544
724.305	34.6618
724.715	34.33686
725.126	34.12776
725.536	34.21119
725.947	33.75564
726.357	33.33746
726.768	33.35751
727.178	32.94419
727.588	32.52355
727.998	32.48606
728.408	32.38834
728.818	32.40498
729.228	31.99828
729.638	32.24129
730.048	31.34406
730.458	31.67378
730.868	31.60452
731.277	31.15453
731.687	30.8679
732.097	30.73568
732.506	30.89473
732.916	30.53648
733.325	30.36679
733.734	30.20953
734.144	29.88169
734.553	30.14209
734.962	29.44557
735.371	29.66375
735.78	29.25009
736.189	29.35996
736.598	29.00095
737.007	29.14511
737.416	28.39825
737.825	28.55127
738.233	28.11294
738.642	28.16127
739.051	27.62823
739.459	28.06482
739.868	27.53314
740.276	27.34797
740.684	27.50753
741.093	27.24053
741.501	27.011
741.909	26.92782
742.317	27.03853
742.725	26.13722
743.133	26.69331
743.541	26.12026
743.949	26.53681
744.357	26.24007
744.765	26.91782
745.173	26.03002
745.58	26.49408
745.988	26.09132
746.396	25.98835
746.803	25.96582
747.211	25.94118
747.618	25.84248
748.025	25.63967
748.433	25.697
748.84	25.59519
749.247	25.66363
749.654	24.95088
750.061	25.42619
750.468	24.33818
750.875	25.20479
751.282	24.54926
751.689	24.7295
752.096	24.09868
752.502	24.55229
752.909	24.24552
753.316	24.1483
753.722	24.11426
754.129	24.05712
754.535	24.29278
754.941	23.72888
755.348	24.07936
755.754	23.69297
756.16	24.0846
756.566	23.40301
756.972	23.7474
757.378	23.81909
757.784	23.48804
758.19	23.57041
758.596	23.05736
759.002	23.83886
759.408	23.16982
759.813	24.01624
760.219	23.4281
760.624	23.5024
761.03	23.25694
761.435	22.97636
761.841	22.91679
762.246	22.43326
762.651	23.14745
763.057	22.57014
763.462	23.53412
763.867	23.07839
764.272	23.52301
764.677	23.40411
765.082	23.12417
765.487	23.48094
765.892	22.74557
766.296	23.28653
766.701	22.3208
767.106	22.82925
767.51	22.21826
767.915	22.53204
768.319	22.48097
768.724	22.47978
769.128	22.28547
769.532	22.20187
769.936	22.54687
770.341	22.10185
770.745	22.51091
771.149	22.12097
771.553	22.40777
771.957	22.10226
772.361	22.10944
772.764	22.34183
773.168	21.64768
773.572	22.19875
773.976	21.79327
774.379	22.21783
774.783	22.01629
775.186	21.73448
775.59	22.03366
775.993	21.69865
776.396	21.996
776.8	21.7466
777.203	22.27849
777.606	21.92916
778.009	21.85217
778.412	22.70602
778.815	21.75039
779.218	22.04179
779.621	22.15118
780.023	21.74431
780.426	21.86549
780.829	21.76589
781.231	21.91772
781.634	21.69359
782.036	22.2016
782.439	21.88767
782.841	21.87712
783.244	21.98925
783.646	21.49455
784.048	22.17098
784.45	21.5959
784.852	22.14556
785.254	22.38825
785.656	21.45501
786.058	22.17695
786.46	21.63514
786.862	21.81695
787.264	21.97861
787.665	21.45735
788.067	22.23701
788.468	21.45649
788.87	21.89126
789.271	21.46374
789.673	21.97924
790.074	21.82538
790.475	21.4743
790.877	22.00539
791.278	21.73959
791.679	22.38783
792.08	22.06106
792.481	22.18539
792.882	22.40468
793.283	22.04086
793.683	22.29296
794.084	22.08982
794.485	21.63701
794.886	22.00466
795.286	21.30024
795.687	21.62881
796.087	21.61749
796.487	21.85556
796.888	21.8699
797.288	21.18359
797.688	21.87183
798.088	21.58842
798.489	21.89459
798.889	22.10651
799.289	21.30283
799.689	21.85598
800.088	21.70799
800.488	21.77885
800.888	22.24674
801.288	21.62753
801.687	22.47794
802.087	21.48344
802.486	21.9807
802.886	22.1241
803.285	21.64763
803.685	22.19861
804.084	21.84967
804.483	22.13852
804.882	21.72357
805.281	21.76279
805.68	22.46973
806.079	21.86188
806.478	22.04066
806.877	21.88995
807.276	21.6423
807.675	22.00614
808.074	21.95551
808.472	21.77633
808.871	21.90645
809.269	22.12194
809.668	22.08526
810.066	22.25822
810.465	21.58319
810.863	22.41706
811.261	21.91455
811.659	21.74201
812.057	21.96203
812.455	21.90153
812.853	22.15893
813.251	21.86574
813.649	22.10937
814.047	21.88356
814.445	21.47269
814.843	21.661
815.24	21.84312
815.638	21.4039
816.035	22.15578
816.433	21.53562
816.83	21.82437
817.228	22.13332
817.625	21.83804
818.022	21.88511
818.419	21.47085
818.816	21.64487
819.213	21.86112
819.61	21.85557
820.007	21.98105
820.404	22.07732
820.801	21.85766
821.198	22.49069
821.595	22.28842
821.991	22.14438
822.388	22.85939
822.784	22.89662
823.181	23.15338
823.577	23.63849
823.974	23.31346
824.37	23.78721
824.766	23.11879
825.162	22.99463
825.558	23.22925
825.954	22.65828
826.35	22.68993
826.746	22.79965
827.142	22.77902
827.538	23.07303
827.934	22.99446
828.33	22.50802
828.725	23.27235
829.121	22.80246
829.516	22.55171
829.912	22.92251
830.307	22.2248
830.703	22.68663
831.098	22.11195
831.493	22.25436
831.888	22.24551
832.283	21.96804
832.678	22.00142
833.073	22.46539
833.468	22.27292
833.863	22.55069
834.258	23.00835
834.653	22.49267
835.048	22.94797
835.442	23.2305
835.837	22.92314
836.231	22.9694
836.626	23.39528
837.02	22.61579
837.415	23.04695
837.809	23.10626
838.203	22.91427
838.597	22.71216
838.991	21.9635
839.385	22.37403
839.779	22.74273
840.173	22.53199
840.567	23.23187
840.961	23.33756
841.355	23.02993
841.748	23.43454
842.142	23.16982
842.536	23.02701
842.929	23.11399
843.323	23.7319
843.716	23.20775
844.109	23.90373
844.503	23.06366
844.896	23.71826
845.289	24.02868
845.682	23.4604
846.075	23.47367
846.468	23.2056
846.861	23.03623
847.254	24.20727
847.647	23.31357
848.04	23.69837
848.432	23.94779
848.825	24.36003
849.217	23.23583
849.61	24.171
850.002	23.46082
850.395	23.87502
850.787	24.66728
851.179	24.03873
851.572	24.31081
851.964	24.16509
852.356	24.10274
852.748	24.53063
853.14	24.15172
853.532	23.92975
853.924	23.80111
854.315	23.93586
854.707	23.67846
855.099	24.08919
855.491	24.06859
855.882	24.0102
856.274	23.77404
856.665	24.55894
857.056	23.69686
857.448	24.74064
857.839	24.80407
858.23	23.39221
858.621	24.28337
859.012	23.86757
859.403	24.1771
859.794	23.32357
860.185	23.97748
860.576	23.90446
860.967	24.43075
861.358	23.70325
861.748	23.6557
862.139	23.36797
862.529	23.64192
862.92	23.25091
863.31	24.01437
863.701	24.0176
864.091	23.33557
864.481	24.01819
864.872	23.6436
865.262	23.5903
865.652	23.18573
866.042	23.54893
866.432	23.12899
866.822	24.52054
867.211	23.98348
867.601	23.25621
867.991	24.27532
868.381	23.54409
868.77	22.67883
869.16	23.81306
869.549	24.38001
869.939	23.37687
870.328	24.06245
870.717	23.68957
871.106	22.8524
871.496	23.29268
871.885	23.62201
872.274	23.4442
872.663	23.62199
873.052	23.57488
873.441	23.39687
873.829	23.12813
874.218	23.59238
874.607	22.9875
874.996	23.19496
875.384	23.8116
875.773	22.59253
876.161	22.91801
876.549	23.15599
876.938	22.53354
877.326	22.53439
877.714	23.07869
878.102	22.53031
878.491	22.22469
878.879	23.18666
879.267	22.5327
879.655	22.17009
880.042	23.14968
880.43	23.21896
880.818	22.98227
881.206	23.79542
881.593	23.57606
881.981	23.52345
882.368	23.45656
882.756	23.56676
883.143	23.26978
883.53	23.36707
883.918	23.61223
884.305	22.99155
884.692	23.16463
885.079	23.2823
885.466	23.25967
885.853	23.40976
886.24	23.84029
886.627	23.04487
887.014	22.8787
887.4	22.939
887.787	23.03761
888.174	23.28366
888.56	23.84782
888.947	23.56866
889.333	22.80915
889.719	23.57258
890.106	23.16609
890.492	22.57967
890.878	23.3487
891.264	22.67048
891.65	21.93166
892.036	22.68323
892.422	23.31462
892.808	22.77452
893.194	22.52937
893.58	23.26795
893.965	23.24989
894.351	22.44042
894.736	22.97861
895.122	23.19592
895.507	22.71199
895.893	23.12379
896.278	23.28739
896.663	23.44874
897.049	22.89938
897.434	23.4776
897.819	22.96
898.204	23.01291
898.589	24.02543
898.974	22.72647
899.359	22.94437
899.743	22.60525
900.128	23.30198
900.513	22.78432
900.897	23.07998
901.282	22.75611
901.667	22.72758
902.051	22.67226
902.435	23.18554
902.82	22.75207
903.204	22.0959
903.588	22.81828
903.972	22.69891
904.356	23.02453
904.74	22.72819
905.124	23.14923
905.508	23.25448
905.892	22.58152
906.276	23.23666
906.659	23.00418
907.043	22.7883
907.427	23.68688
907.81	23.59348
908.194	23.07675
908.577	23.53194
908.96	23.83004
909.344	23.29523
909.727	22.98851
910.11	23.46173
910.493	23.57121
910.876	22.81935
911.259	22.69195
911.642	23.03352
912.025	22.29412
912.408	22.4658
912.79	22.29707
913.173	21.97763
913.556	22.25477
913.938	22.93667
914.321	22.52186
914.703	21.93389
915.086	22.09977
915.468	22.48066
915.85	21.7324
916.232	22.20232
916.614	22.80367
916.996	22.723
917.378	22.12453
917.76	22.45426
918.142	22.69532
918.524	22.95029
918.906	22.56295
919.288	22.2991
919.669	22.11419
920.051	21.96256
920.432	23.07806
920.814	22.26683
921.195	22.97844
921.577	22.67536
921.958	23.58444
922.339	23.1786
922.72	22.38134
923.101	22.4834
923.482	23.31371
923.863	22.50493
924.244	22.35695
924.625	22.76744
925.006	21.54032
925.387	20.75549
925.767	22.72855
926.148	22.52103
926.528	23.05895
926.909	21.98994
927.289	23.09093
927.67	24.49268
928.05	21.71184
928.43	22.4356
928.81	23.04212
929.191	22.25631
929.571	22.65847
929.951	22.99312
930.331	22.58556
930.71	22.34245
931.09	22.24686
931.47	22.88837
931.85	22.07384
932.229	21.71845
932.609	21.5037
932.988	22.70003
933.368	22.32641
933.747	22.02996
934.127	22.62835
934.506	22.27406
934.885	21.80518
935.264	21.21429
935.643	22.62399
936.022	21.76959
936.401	22.03814
936.78	22.46716
937.159	22.05935
937.538	21.68752
937.916	22.086
938.295	21.4473
938.674	21.462
939.052	22.29094
939.431	21.72328
939.809	22.55215
940.187	21.67352
940.566	22.14548
940.944	21.60256
941.322	23.2974
941.7	21.57354
942.078	23.04356
942.456	21.35015
942.834	21.60261
943.212	21.72231
943.59	22.64162
943.968	21.89902
944.345	21.91868
944.723	21.09833
945.1	21.46295
945.478	21.9478
945.855	21.33598
946.233	22.57978
946.61	21.68878
946.987	23.14665
947.365	21.93977
947.742	21.09391
948.119	22.52435
948.496	21.23347
948.873	20.94655
949.25	21.21397
949.626	22.09139
950.003	20.86306
950.38	22.2422
950.756	21.21528
951.133	20.95533
951.51	22.42072
951.886	20.97031
952.262	20.78772
952.639	20.25004
953.015	21.07622
953.391	20.23169
953.767	20.92935
954.143	20.43961
954.519	20.8598
954.895	20.89784
955.271	21.78249
955.647	22.62184
956.023	20.99056
956.399	22.83132
956.774	22.91241
957.15	20.34797
957.525	23.63182
957.901	21.24817
958.276	22.72999
958.652	20.5763
959.027	21.83872
959.402	20.37563
959.777	19.31094
960.152	20.73736
960.527	22.62577
960.902	23.26053
961.277	20.6492
961.652	21.94572
962.027	20.22442
962.402	23.07458
962.776	21.10027
963.151	21.49697
963.525	22.78298
963.9	20.81189
964.274	22.56342
964.649	20.1035
965.023	21.24718
965.397	20.23834
965.771	21.83501
966.146	21.5647
966.52	18.79163
966.894	19.79801
967.268	20.24583
967.641	18.04316
968.015	18.39798
968.389	20.47768
968.763	21.40114
969.136	19.72859
969.51	22.50429
969.883	21.00099
970.257	21.64157
970.63	22.07446
971.003	21.42941
971.377	20.80559
971.75	19.48126
972.123	21.45497
972.496	21.37139
972.869	19.92027
973.242	21.25356
973.615	18.08042
973.988	20.81247
974.36	19.95407
974.733	20.98016
975.106	20.91002
975.478	19.21411
975.851	21.10778
976.223	22.04838
976.596	20.03994
976.968	21.52263
977.34	20.79325
977.712	19.89126
978.085	19.50461
978.457	18.89414
978.829	20.99958
979.201	19.32346
979.573	19.79654
979.944	18.89822
980.316	19.59457
980.688	20.514
981.059	20.9021
981.431	20.18383
981.803	19.88288
982.174	20.26011
982.545	21.03275
982.917	19.72553
983.288	20.96089
983.659	21.22327
984.03	19.5511
984.401	19.29987
984.772	19.86745
985.143	19.06352
985.514	19.32724
985.885	21.42132
986.256	20.47529
986.627	20.55835
986.997	19.5287
987.368	18.96095
987.738	19.38588
988.109	19.152
988.479	20.05569
988.85	19.67526
989.22	19.62071
989.59	20.55571
989.96	19.25587
990.33	18.98866
990.7	18.54698
991.07	21.16187
991.44	19.48901
991.81	18.28877
992.18	19.8559
992.549	18.5033
992.919	18.37157
993.289	18.55875
993.658	18.92484
994.028	19.36796
994.397	18.82538
994.766	19.24025
995.136	18.73898
995.505	17.95473
995.874	19.55328
996.243	19.91608
996.612	18.66486
996.981	21.37494
997.35	19.71408
997.719	18.55985
998.088	18.9146
998.456	19.83587
998.825	20.46703
999.194	17.56686
999.562	22.63309
999.931	21.56737
1000.299	19.6401
1000.667	18.48609
1001.036	17.70706
1001.404	20.92004
1001.772	19.58585
1002.14	20.31704
1002.508	16.5817
1002.876	19.94607
1003.244	17.72075
1003.612	18.50566
1003.98	20.29115
1004.347	19.32666
1004.715	20.32941
1005.083	16.08807
1005.45	19.37016
1005.818	18.83283
1006.185	20.47411
1006.552	23.86908
1006.92	19.39441
1007.287	18.27722
1007.654	19.84696
1008.021	16.71726
1008.388	24.86298
1008.755	16.5059
1009.122	16.91716
1009.489	21.02782
1009.856	22.83876
1010.222	18.15053
1010.589	19.77171
1010.956	17.35747
1011.322	20.38013
1011.689	19.26885
1012.055	19.07837
1012.421	20.33474
1012.788	16.85416
1013.154	23.30698
1013.52	19.15906
1013.886	16.01277
1014.252	17.64582
1014.618	24.63168
1014.984	21.21706
1015.35	18.22854
1015.716	19.33019
1016.081	20.21447
1016.447	21.54591
1016.813	21.21797
1017.178	18.91513
1017.544	21.96812
1017.909	21.67541
1018.274	28.19824
1018.64	17.88798
1019.005	16.17767
1019.37	18.17925
1019.735	21.56096
1020.1	21.2182
1020.465	21.95883
1020.83	21.26273
1021.195	21.02846
1021.56	20.76168
1021.924	23.6369
1022.289	24.54637
1022.654	23.31839
1023.018	17.65059
1023.383	19.68773
1023.747	15.92748
1024.111	15.77458
1024.476	25.53965
1024.84	25.37155
1025.204	26.10761
1025.568	20.76922
1025.932	19.5411
1026.296	26.38408
1026.66	29.5204
1027.024	23.19659
1027.387	22.11318
1027.751	23.33565
1028.115	26.86372
1028.478	27.49629
1028.842	22.40199
1029.205	29.37984
1029.569	27.3368
1029.932	19.80403
1030.295	19.72262
1030.659	20.08513
1031.022	22.56783
1031.385	30.258
1031.748	24.58179
1032.111	18.5345
1032.474	26.23899
1032.836	29.05647
1033.199	27.34742
1033.562	15.95974
1033.924	26.50542
1034.287	16.85456
1034.65	26.36361
1035.012	25.99842
1035.374	19.6424
1035.737	26.68882
1036.099	20.2925
1036.461	27.25724
1036.823	16.5392
1037.185	30.6366
1037.547	22.53846
1037.909	26.54567
1038.271	18.74181
1038.633	26.02505
1038.995	16.4761
1039.356	18.42134
1039.718	39.84201
1040.08	27.43315
1040.441	15.48054
1040.803	20.88677
1041.164	23.49795
1041.525	24.03634
1041.886	19.98972
1042.248	34.78402
1042.609	31.52931
1042.97	26.2852
1043.331	35.16646
1043.692	-0.38294
1044.053	24.08738
1044.413	21.10222
1044.774	17.10289
1045.135	25.2919
1045.495	26.80966
1045.856	19.42586
1046.216	26.69773
1046.577	23.19803
1046.937	47.1984
1047.298	20.46942
