Data from 1016water_Reflection__27__20-43-21-217.txt Node

Date: Thu Oct 16 20:43:21 AST 2025
User: lin
Spectrometer: SR600411
Trigger mode: 0
Integration Time (sec): 5.601500E-2
Scans to average: 5
Nonlinearity correction enabled: true
Boxcar width: 0
Storing dark spectrum: false
XAxis mode: Wavelengths
Number of Pixels in Spectrum: 2048
>>>>>Begin Spectral Data<<<<<
187.982	55.65587
188.456	59.91762
188.93	62.58007
189.403	61.55085
189.877	50.56632
190.351	58.50427
190.825	56.23674
191.298	68.3893
191.772	63.36331
192.246	67.6244
192.719	38.72829
193.193	59.08142
193.666	67.22378
194.139	55.49021
194.613	54.76606
195.086	64.06177
195.559	62.80307
196.033	63.53669
196.506	76.38909
196.979	55.09947
197.452	73.92422
197.925	52.97706
198.398	60.46628
198.871	59.98219
199.344	65.69122
199.816	48.52841
200.289	60.05873
200.762	47.92193
201.235	55.08135
201.707	70.7233
202.18	38.94539
202.652	61.66882
203.125	27.53077
203.597	50.98591
204.07	69.35688
204.542	73.02676
205.014	36.65838
205.486	74.72422
205.959	48.59449
206.431	51.16806
206.903	64.18244
207.375	65.37879
207.847	42.95085
208.319	49.99464
208.791	22.85225
209.263	46.31111
209.734	62.68036
210.206	81.36948
210.678	52.79382
211.15	29.40687
211.621	28.14274
212.093	62.83099
212.564	71.29192
213.036	45.36506
213.507	89.47191
213.979	50.35818
214.45	35.5722
214.921	60.70899
215.392	76.57263
215.864	61.10602
216.335	68.651
216.806	38.20563
217.277	72.52388
217.748	55.54938
218.219	5.95145
218.69	45.68793
219.161	38.88465
219.631	50.87155
220.102	55.85498
220.573	62.80432
221.043	33.3291
221.514	52.57253
221.985	33.32897
222.455	44.60902
222.926	44.75676
223.396	57.68728
223.866	72.12628
224.337	44.11266
224.807	59.99477
225.277	79.00969
225.747	42.64046
226.217	69.56039
226.687	43.27706
227.157	41.66262
227.627	29.62628
228.097	46.14808
228.567	55.33475
229.037	47.11025
229.507	61.31577
229.977	55.36597
230.446	62.38025
230.916	34.81639
231.386	30.33335
231.855	40.33046
232.325	55.82746
232.794	70.24292
233.263	59.22454
233.733	62.1988
234.202	58.88457
234.671	44.32515
235.14	39.73989
235.61	70.3341
236.079	24.4428
236.548	85.05528
237.017	59.31639
237.486	54.16076
237.955	46.83154
238.424	65.93001
238.892	90.73894
239.361	55.43028
239.83	32.78156
240.299	56.7099
240.767	51.15853
241.236	47.11024
241.704	66.36668
242.173	82.49771
242.641	63.94956
243.109	31.86421
243.578	76.11699
244.046	74.3078
244.514	71.90655
244.982	71.66183
245.451	63.37701
245.919	40.78583
246.387	85.55335
246.855	90.69624
247.323	60.62391
247.791	58.97062
248.258	52.47025
248.726	79.16431
249.194	59.81609
249.662	85.07294
250.129	57.88923
250.597	31.89155
251.064	64.70126
251.532	71.96442
251.999	36.83684
252.467	92.18659
252.934	71.69385
253.401	72.3367
253.869	56.78618
254.336	67.0551
254.803	62.24034
255.27	42.67895
255.737	47.05462
256.204	49.99484
256.671	64.51191
257.138	84.72037
257.605	113.20912
258.072	59.99382
258.539	77.66636
259.005	77.02443
259.472	49.99573
259.939	71.4246
260.405	58.82108
260.872	19.99746
261.338	58.09017
261.805	54.02615
262.271	65.56831
262.737	65.37995
263.203	93.81332
263.67	87.62678
264.136	52.86927
264.602	20.5103
265.068	89.53329
265.534	57.1381
266	28.56746
266.466	52.52036
266.932	62.78671
267.398	42.14291
267.864	53.11868
268.329	62.25921
268.795	49.57394
269.261	82.18966
269.726	83.33135
270.192	66.66085
270.657	66.37418
271.123	62.4948
271.588	58.69123
272.053	55.06907
272.519	58.26159
272.984	72.30511
273.449	81.66488
273.914	34.99549
274.379	52.52035
274.844	64.14611
275.309	35.16072
275.774	64.35184
276.239	81.50905
276.704	58.55322
277.169	83.33102
277.634	55.66535
278.098	85.8562
278.563	63.29773
279.028	38.81952
279.492	34.47756
279.957	84.08857
280.421	66.12628
280.886	73.2634
281.35	63.36169
281.814	73.21211
282.279	72.30511
282.743	47.82267
283.207	44.63737
283.671	40.15812
284.135	46.39383
284.599	73.78246
285.063	42.30266
285.527	82.2762
285.991	56.66228
286.455	50.58402
286.919	79.04417
287.382	56.40455
287.846	43.99511
288.31	79.00968
288.773	84.72037
289.237	93.24232
289.7	60.37233
290.164	52.87948
290.627	97.36803
291.09	50.49004
291.554	93.40548
292.017	81.81527
292.48	77.5664
292.943	59.04258
293.406	59.03217
293.869	40.22574
294.332	84.90297
294.795	46.90958
295.258	74.75343
295.721	61.1602
296.184	74.57405
296.646	53.84231
297.109	51.34769
297.572	91.66539
298.034	101.51535
298.497	53.77565
298.959	74.9942
299.422	116.17901
299.884	58.87337
300.346	49.42098
300.809	56.71316
301.271	75.50661
301.733	83.8217
302.195	62.64675
302.657	86.45611
303.119	96.96931
303.581	59.33631
304.043	76.82637
304.505	59.78919
304.967	110.64049
305.429	52.97845
305.891	90.62392
306.352	44.92415
306.814	93.05463
307.275	83.0492
307.737	44.82474
308.198	58.77233
308.66	78.56863
309.121	32.39128
309.583	91.99891
310.044	21.7368
310.505	43.39106
310.966	61.7246
311.428	79.75922
311.889	68.8027
312.35	75.64798
312.811	68.21151
313.272	76.46877
313.733	74.99717
314.193	162.26672
314.654	64.51191
315.115	50.55739
315.576	74.07099
316.036	76.34076
316.497	74.68058
316.957	59.08564
317.418	124.44716
317.878	37.60139
318.339	44.29993
318.799	48.17638
319.259	101.6131
319.72	24.28316
320.18	74.99583
320.64	113.89115
321.1	82.95208
321.56	81.81526
322.02	56.7257
322.48	56.40646
322.94	41.37513
323.4	47.86769
323.86	65.17353
324.319	68.05245
324.779	95.31193
325.239	60.35509
325.698	72.72424
326.158	80.24437
326.617	76.56023
327.077	22.03189
327.536	59.99619
327.996	79.30846
328.455	65.87857
328.914	86.04446
329.373	34.6633
329.832	64.57898
330.292	84.05614
330.751	70.88285
331.21	85.8562
331.668	98.55053
332.127	75.63817
332.586	81.24855
333.045	75.25415
333.504	66.91146
333.962	86.53726
334.421	91.17539
334.88	57.37409
335.338	68.2197
335.797	50.66295
336.255	-5.40457
336.714	47.43204
337.172	59.65818
337.63	17.64559
338.088	94.36545
338.547	55.41762
339.005	38.55032
339.463	81.07771
339.921	85.55335
340.379	96.29572
340.837	70.64839
341.295	35.48106
341.753	55.47231
342.21	46.90958
342.668	74.38714
343.126	81.81591
343.584	46.84137
344.041	59.21837
344.499	80.73059
344.956	43.7461
345.414	67.73791
345.871	49.99495
346.328	48.09736
346.786	85.59034
347.243	67.00606
347.7	68.65386
348.157	63.88395
348.614	72.49684
349.071	53.89376
349.528	67.5879
349.985	51.7184
350.442	59.25409
350.899	53.25633
351.356	85.54013
351.812	70.26567
352.269	51.37075
352.726	49.37871
353.182	62.95922
353.639	63.95889
354.095	93.10234
354.552	86.79005
355.008	77.86469
355.465	63.36169
355.921	49.99375
356.377	79.60834
356.833	43.67392
357.289	78.25699
357.745	95.40154
358.201	43.96475
358.657	57.13708
359.113	57.72727
359.569	59.48613
360.025	46.74565
360.481	53.27793
360.937	74.32448
361.392	65.87478
361.848	56.20478
362.303	63.35275
362.759	79.99414
363.214	54.04495
363.67	61.89496
364.125	58.06439
364.581	55.89311
365.036	53.46694
365.491	58.7054
365.946	56.90281
366.401	53.74021
366.856	48.63219
367.311	53.01631
367.766	64.90728
368.221	61.0782
368.676	65.56222
369.131	57.43414
369.586	50.85226
370.041	57.03917
370.495	53.69329
370.95	60.14809
371.404	56.30357
371.859	57.81051
372.313	56.89746
372.768	54.0356
373.222	50.10141
373.676	58.51802
374.131	56.1974
374.585	52.07142
375.039	56.29244
375.493	55.80283
375.947	54.16424
376.401	52.58853
376.855	57.19533
377.309	55.7051
377.763	52.96134
378.217	55.64424
378.67	55.16428
379.124	54.83097
379.578	57.52238
380.031	56.71523
380.485	53.38407
380.938	55.85983
381.392	54.14725
381.845	54.88189
382.299	54.34977
382.752	54.64038
383.205	55.22704
383.658	52.80563
384.111	53.24766
384.564	54.91353
385.018	54.32858
385.471	54.77229
385.923	53.84092
386.376	54.074
386.829	54.26121
387.282	55.61184
387.735	56.79152
388.187	56.37469
388.64	54.79836
389.093	56.24899
389.545	55.91051
389.998	56.72548
390.45	55.46485
390.902	55.28948
391.355	54.09755
391.807	55.68861
392.259	55.72037
392.711	55.91432
393.163	56.10965
393.615	56.07511
394.068	56.29315
394.519	55.77395
394.971	56.30475
395.423	55.39595
395.875	55.31271
396.327	55.93292
396.779	56.06096
397.23	55.87132
397.682	55.59208
398.133	56.2891
398.585	54.99754
399.036	55.11397
399.488	54.64772
399.939	55.52288
400.39	55.15992
400.842	54.15288
401.293	54.14561
401.744	54.36179
402.195	54.52574
402.646	54.06977
403.097	53.82473
403.548	53.60805
403.999	53.52221
404.45	53.98522
404.9	53.84057
405.351	52.98481
405.802	53.25189
406.253	52.93499
406.703	52.50946
407.154	52.42982
407.604	52.64385
408.055	52.31203
408.505	52.02195
408.955	52.17928
409.406	52.06525
409.856	52.00578
410.306	52.42774
410.756	52.08349
411.206	51.84982
411.656	51.38295
412.106	51.23009
412.556	50.73796
413.006	50.75334
413.456	50.74894
413.905	50.16173
414.355	50.06744
414.805	50.73179
415.254	49.53981
415.704	49.53814
416.153	49.60764
416.603	49.30455
417.052	49.61566
417.502	49.46442
417.951	49.16776
418.4	48.78314
418.849	48.68365
419.298	48.71746
419.748	48.07047
420.197	47.90832
420.646	47.87506
421.094	48.03769
421.543	47.57074
421.992	47.38419
422.441	46.78168
422.89	47.48074
423.338	47.03527
423.787	46.66599
424.236	46.66122
424.684	46.66962
425.133	46.6818
425.581	46.58777
426.029	46.4374
426.478	46.50974
426.926	46.76355
427.374	46.58013
427.822	46.08096
428.27	46.18579
428.718	46.12128
429.166	46.18333
429.614	45.72056
430.062	45.65575
430.51	45.84972
430.958	45.64881
431.406	45.08905
431.853	45.70187
432.301	45.39881
432.749	45.45853
433.196	44.85442
433.644	44.81067
434.091	44.89578
434.538	44.97986
434.986	44.82165
435.433	45.07906
435.88	44.73166
436.327	44.24319
436.775	44.83841
437.222	44.47447
437.669	44.40207
438.116	44.73871
438.563	44.25415
439.009	44.39485
439.456	44.81262
439.903	44.76649
440.35	44.42112
440.796	44.57177
441.243	44.42736
441.689	44.57087
442.136	44.65223
442.582	44.14058
443.029	44.99453
443.475	44.74946
443.921	44.03692
444.368	44.65027
444.814	44.15696
445.26	44.34473
445.706	44.60587
446.152	44.74453
446.598	44.33261
447.044	44.57402
447.49	44.67304
447.936	44.37305
448.381	44.48968
448.827	44.87912
449.273	44.85392
449.718	44.68034
450.164	45.20487
450.61	44.54132
451.055	44.4632
451.5	44.46573
451.946	44.57162
452.391	44.6084
452.836	44.74929
453.282	45.26596
453.727	45.14278
454.172	45.18001
454.617	45.45739
455.062	45.07349
455.507	45.50749
455.952	45.42332
456.396	45.1482
456.841	45.41014
457.286	45.67105
457.731	45.8034
458.175	45.69924
458.62	45.86842
459.064	45.84324
459.509	46.1363
459.953	46.04811
460.398	46.1758
460.842	46.28624
461.286	46.20676
461.73	46.03734
462.174	46.78345
462.619	46.63752
463.063	47.13167
463.507	46.8509
463.951	47.31439
464.394	47.09965
464.838	47.58243
465.282	47.45868
465.726	47.46918
466.17	47.96192
466.613	47.39828
467.057	47.61456
467.5	48.19634
467.944	48.26576
468.387	48.83324
468.831	48.36093
469.274	48.91059
469.717	48.9498
470.16	49.87512
470.603	49.67802
471.047	49.91557
471.49	50.18537
471.933	50.20593
472.376	50.43458
472.818	50.5042
473.261	50.66095
473.704	50.70015
474.147	51.08714
474.59	50.94076
475.032	51.01335
475.475	51.71392
475.917	51.7369
476.36	51.4996
476.802	51.58203
477.245	51.82837
477.687	52.92948
478.129	52.62919
478.571	52.90762
479.013	53.37685
479.456	53.36203
479.898	53.67841
480.34	53.52698
480.782	53.65469
481.224	53.72479
481.665	53.50899
482.107	54.27754
482.549	54.1896
482.991	53.97202
483.432	54.22655
483.874	54.16912
484.315	54.02635
484.757	54.26358
485.198	54.90289
485.64	55.23403
486.081	54.87259
486.522	55.05936
486.963	55.36741
487.405	55.19058
487.846	55.78377
488.287	55.74712
488.728	56.01102
489.169	56.02618
489.61	56.03237
490.05	55.82771
490.491	56.17052
490.932	55.86866
491.373	55.83341
491.813	56.51789
492.254	56.1333
492.694	56.01364
493.135	56.30011
493.575	56.15822
494.016	56.03433
494.456	56.63013
494.896	56.28201
495.336	56.46159
495.777	56.86413
496.217	56.75624
496.657	56.5739
497.097	57.04254
497.537	56.58943
497.977	56.85534
498.416	56.75587
498.856	57.26572
499.296	57.40972
499.736	57.72966
500.175	57.22042
500.615	57.05806
501.054	57.72305
501.494	57.41065
501.933	57.98229
502.373	57.97445
502.812	57.99012
503.251	58.26575
503.69	58.05748
504.129	58.56351
504.569	59.06071
505.008	59.32661
505.447	58.85751
505.886	59.1068
506.324	59.47943
506.763	59.16443
507.202	59.33658
507.641	59.40467
508.079	59.96402
508.518	60.44467
508.957	60.73249
509.395	60.24666
509.834	61.45704
510.272	61.2009
510.71	60.82128
511.149	61.18559
511.587	62.07451
512.025	61.77679
512.463	61.54238
512.901	61.62038
513.339	61.93676
513.777	63.17197
514.215	62.81949
514.653	62.35801
515.091	62.98371
515.529	63.00236
515.966	62.95146
516.404	63.70543
516.842	63.52781
517.279	63.80406
517.717	63.715
518.154	63.81281
518.592	63.56104
519.029	64.43009
519.466	64.96734
519.904	64.64294
520.341	65.06811
520.778	65.11055
521.215	65.63286
521.652	65.52297
522.089	65.26052
522.526	65.99626
522.963	66.13261
523.399	65.47375
523.836	67.09267
524.273	66.7523
524.71	67.23649
525.146	67.50324
525.583	67.53821
526.019	67.53746
526.456	67.63744
526.892	67.97321
527.328	68.23919
527.765	68.49771
528.201	68.34144
528.637	68.77023
529.073	68.97481
529.509	69.40879
529.945	69.67562
530.381	69.70516
530.817	69.54825
531.253	69.75709
531.689	69.94463
532.124	69.93496
532.56	69.84418
532.996	70.16852
533.431	70.32122
533.867	70.85744
534.302	70.65426
534.738	70.94465
535.173	70.86317
535.608	70.69728
536.044	71.68517
536.479	70.75342
536.914	71.55992
537.349	71.31839
537.784	71.47074
538.219	71.41945
538.654	71.63716
539.089	71.23705
539.524	71.20181
539.959	71.21825
540.393	71.6622
540.828	72.42051
541.263	72.71251
541.697	72.0816
542.132	72.20608
542.566	72.0223
543.001	72.18564
543.435	72.07292
543.869	72.46749
544.303	72.15677
544.738	72.66541
545.172	72.78847
545.606	72.43089
546.04	72.42619
546.474	72.54122
546.908	71.95763
547.342	71.89385
547.775	72.28794
548.209	71.52112
548.643	72.596
549.077	72.93959
549.51	72.37524
549.944	72.08842
550.377	71.71223
550.811	71.69943
551.244	71.7373
551.677	71.11958
552.111	71.16498
552.544	70.80841
552.977	70.42896
553.41	70.69994
553.843	69.67064
554.276	69.81957
554.709	69.10045
555.142	69.39228
555.575	69.03257
556.008	69.4386
556.44	68.99199
556.873	68.44115
557.306	68.80897
557.738	68.39549
558.171	68.27841
558.603	67.26616
559.036	67.48812
559.468	66.94699
559.9	67.09344
560.333	66.90666
560.765	67.26776
561.197	66.43812
561.629	66.4124
562.061	66.40898
562.493	66.53285
562.925	66.35496
563.357	65.94707
563.789	65.70985
564.22	65.60648
564.652	65.27253
565.084	64.79252
565.515	64.76853
565.947	64.47961
566.378	64.5786
566.81	64.60129
567.241	64.20112
567.672	64.03058
568.104	64.27397
568.535	63.79913
568.966	63.43788
569.397	62.80173
569.828	62.22012
570.259	61.48846
570.69	61.4407
571.121	61.4821
571.552	60.95238
571.983	61.26299
572.414	60.46741
572.844	60.31771
573.275	60.68608
573.705	60.31491
574.136	59.86775
574.566	60.03371
574.997	59.4649
575.427	59.86061
575.857	59.65856
576.288	59.09332
576.718	59.11762
577.148	58.90119
577.578	58.92468
578.008	58.33291
578.438	58.84518
578.868	58.19005
579.298	57.34372
579.728	57.56403
580.157	57.20768
580.587	57.01611
581.017	56.70519
581.446	56.30797
581.876	55.80164
582.305	55.95339
582.735	55.83603
583.164	55.64085
583.593	55.2244
584.023	55.31922
584.452	55.23373
584.881	55.12063
585.31	55.3358
585.739	54.78889
586.168	54.65333
586.597	54.66332
587.026	54.29958
587.455	53.59616
587.884	53.9924
588.312	53.39957
588.741	53.11876
589.17	53.12542
589.598	52.78677
590.027	52.79294
590.455	52.29323
590.884	52.15739
591.312	52.42344
591.74	52.04628
592.168	51.96848
592.597	52.01497
593.025	51.74005
593.453	51.50474
593.881	51.38438
594.309	50.91353
594.737	51.03209
595.165	50.56202
595.592	50.49646
596.02	50.39438
596.448	49.8631
596.875	49.91046
597.303	49.65552
597.73	49.46534
598.158	49.83089
598.585	49.45341
599.013	49.23699
599.44	49.48921
599.867	49.04732
600.294	48.7452
600.722	48.50793
601.149	48.37649
601.576	48.69874
602.003	48.54156
602.43	48.1291
602.856	48.06859
603.283	48.00072
603.71	47.87462
604.137	47.99673
604.563	47.70107
604.99	47.96175
605.416	47.66249
605.843	47.91187
606.269	47.36235
606.696	47.49755
607.122	47.36098
607.548	47.44462
607.975	47.07204
608.401	47.06066
608.827	46.87884
609.253	46.78002
609.679	47.23441
610.105	46.75576
610.531	46.49436
610.956	47.00363
611.382	46.94657
611.808	47.07171
612.234	46.14888
612.659	46.37844
613.085	46.13905
613.51	46.16361
613.936	46.06631
614.361	46.53678
614.786	46.26522
615.212	46.16011
615.637	46.11628
616.062	45.93543
616.487	46.32864
616.912	46.14516
617.337	46.0574
617.762	45.98939
618.187	46.10329
618.612	46.06724
619.037	46.29142
619.461	46.16487
619.886	46.49844
620.311	46.41379
620.735	46.47988
621.16	46.04654
621.584	46.51494
622.008	46.74202
622.433	46.18225
622.857	45.8139
623.281	45.6224
623.705	45.71961
624.13	45.9302
624.554	45.68973
624.978	45.50576
625.402	45.57994
625.826	45.59552
626.249	45.23148
626.673	45.16611
627.097	45.51259
627.521	45.6124
627.944	45.96859
628.368	45.73421
628.791	45.5634
629.215	45.69337
629.638	45.84528
630.061	45.89836
630.485	46.2643
630.908	45.80348
631.331	45.9969
631.754	46.31198
632.177	46.05366
632.6	46.45754
633.023	46.64107
633.446	46.60483
633.869	46.54877
634.292	47.44283
634.715	47.8031
635.137	47.59141
635.56	47.56441
635.982	47.69034
636.405	47.67129
636.827	47.79587
637.25	48.13051
637.672	47.01633
638.094	47.46885
638.517	47.4694
638.939	47.79863
639.361	48.43019
639.783	48.57148
640.205	48.82854
640.627	48.3402
641.049	48.69584
641.471	48.61561
641.893	48.86791
642.314	49.23076
642.736	49.04516
643.158	49.18606
643.579	49.39225
644.001	49.51893
644.422	50.13532
644.844	50.10508
645.265	49.855
645.686	49.81363
646.107	49.98216
646.529	50.41121
646.95	50.70561
647.371	50.00088
647.792	50.68582
648.213	50.63745
648.634	50.87829
649.055	51.08435
649.475	51.34919
649.896	51.08652
650.317	51.40836
650.737	51.94604
651.158	51.38988
651.578	52.17733
651.999	52.08705
652.419	51.9449
652.84	52.62636
653.26	52.28447
653.68	52.50871
654.1	52.96589
654.521	52.50843
654.941	53.2934
655.361	53.71373
655.781	53.74314
656.2	53.87035
656.62	54.19833
657.04	53.86166
657.46	53.76493
657.879	53.89174
658.299	54.32758
658.719	54.21925
659.138	53.79227
659.558	54.77158
659.977	54.93928
660.396	55.24291
660.816	55.12513
661.235	54.97275
661.654	55.16381
662.073	54.87969
662.492	55.41476
662.911	55.13668
663.33	55.2267
663.749	55.95931
664.168	56.31842
664.587	56.73584
665.006	56.92324
665.424	56.04792
665.843	56.93795
666.261	56.5837
666.68	56.72824
667.098	57.08692
667.517	56.9761
667.935	57.09015
668.353	57.01103
668.772	56.81529
669.19	56.71069
669.608	56.89687
670.026	57.48932
670.444	56.81182
670.862	57.3056
671.28	57.64331
671.698	57.32153
672.115	57.03996
672.533	56.72407
672.951	57.65544
673.368	57.24674
673.786	57.4542
674.203	57.22652
674.621	57.28956
675.038	57.23691
675.456	57.22939
675.873	56.81352
676.29	57.39959
676.707	57.13357
677.124	57.30595
677.541	57.47488
677.958	57.46582
678.375	57.07218
678.792	56.89771
679.209	56.98551
679.626	56.55191
680.043	56.35287
680.459	56.59566
680.876	56.2365
681.292	55.95147
681.709	55.68011
682.125	55.72988
682.542	55.79331
682.958	55.84805
683.374	55.76464
683.79	55.63788
684.207	55.16374
684.623	55.4737
685.039	55.62676
685.455	54.9014
685.871	54.67261
686.286	54.83775
686.702	54.17898
687.118	54.40663
687.534	53.78698
687.949	54.61023
688.365	54.00016
688.781	53.93779
689.196	53.75597
689.611	53.41729
690.027	53.45879
690.442	53.05133
690.857	53.2549
691.273	53.12056
691.688	52.54356
692.103	52.09772
692.518	52.38951
692.933	52.40594
693.348	52.06154
693.763	51.96072
694.177	51.31432
694.592	51.17057
695.007	50.62957
695.421	51.05143
695.836	50.57723
696.25	50.85174
696.665	50.68806
697.079	50.38606
697.494	49.92399
697.908	49.767
698.322	49.38715
698.736	49.48713
699.151	49.04984
699.565	48.81909
699.979	48.76316
700.393	48.74544
700.806	48.47348
701.22	48.33216
701.634	48.50148
702.048	47.47242
702.461	47.18876
702.875	46.49124
703.289	46.54327
703.702	46.67555
704.116	46.1434
704.529	45.65596
704.942	45.62285
705.356	45.35993
705.769	44.96802
706.182	44.98811
706.595	44.86704
707.008	44.53935
707.421	44.25459
707.834	44.3115
708.247	44.17803
708.66	43.76111
709.072	43.56755
709.485	43.40729
709.898	43.35664
710.31	43.11137
710.723	42.81748
711.135	42.41338
711.548	42.16621
711.96	41.32309
712.373	41.53493
712.785	40.99918
713.197	41.25942
713.609	40.55768
714.021	40.10461
714.433	39.48938
714.845	39.59144
715.257	39.2848
715.669	39.21045
716.081	38.63194
716.493	38.74123
716.904	38.53296
717.316	38.46428
717.727	37.91653
718.139	38.04632
718.55	38.05983
718.962	37.62612
719.373	37.12257
719.784	36.82978
720.196	36.50861
720.607	36.33394
721.018	35.80271
721.429	35.75727
721.84	35.4498
722.251	35.59162
722.662	35.38743
723.073	35.27573
723.483	34.83818
723.894	34.7678
724.305	34.44726
724.715	34.42321
725.126	34.39209
725.536	34.03955
725.947	33.76311
726.357	33.18858
726.768	32.9726
727.178	32.91552
727.588	32.35835
727.998	32.5424
728.408	32
728.818	32.25865
729.228	31.70571
729.638	31.80623
730.048	31.31632
730.458	31.62869
730.868	31.49241
731.277	31.19752
731.687	30.90444
732.097	31.33249
732.506	30.67091
732.916	30.82938
733.325	30.4548
733.734	30.65236
734.144	29.81962
734.553	30.12981
734.962	29.49894
735.371	29.74069
735.78	29.28101
736.189	29.43046
736.598	28.75577
737.007	28.69915
737.416	28.2196
737.825	28.58796
738.233	28.59856
738.642	28.15586
739.051	27.689
739.459	27.84817
739.868	27.39006
740.276	27.42725
740.684	27.03466
741.093	27.01886
741.501	26.7332
741.909	26.5133
742.317	26.77567
742.725	26.35907
743.133	26.57359
743.541	26.15418
743.949	26.71283
744.357	25.94645
744.765	26.45219
745.173	25.74273
745.58	26.26526
745.988	25.83425
746.396	26.0434
746.803	25.54842
747.211	25.85393
747.618	25.60167
748.025	25.26338
748.433	25.60534
748.84	25.03668
749.247	25.15221
749.654	25.02338
750.061	25.1972
750.468	24.42835
750.875	25.14032
751.282	24.65114
751.689	24.66485
752.096	23.80589
752.502	24.58963
752.909	24.16255
753.316	23.94555
753.722	24.08024
754.129	23.7641
754.535	24.00939
754.941	23.53615
755.348	23.98724
755.754	23.50757
756.16	23.92904
756.566	23.3769
756.972	23.7274
757.378	23.47032
757.784	23.10153
758.19	23.45111
758.596	23.10788
759.002	23.69159
759.408	22.92263
759.813	23.67219
760.219	23.44519
760.624	23.37593
761.03	23.23173
761.435	22.93901
761.841	22.6546
762.246	22.3164
762.651	22.79639
763.057	22.58145
763.462	23.33131
763.867	23.00995
764.272	23.37531
764.677	23.1604
765.082	22.96663
765.487	23.42818
765.892	22.73703
766.296	23.2648
766.701	22.51406
767.106	22.93655
767.51	21.99943
767.915	22.25938
768.319	22.64398
768.724	22.51265
769.128	22.09007
769.532	22.35964
769.936	22.23192
770.341	21.61806
770.745	22.43727
771.149	22.25202
771.553	22.08169
771.957	22.27051
772.361	21.81234
772.764	22.38299
773.168	21.62571
773.572	22.16903
773.976	22.32718
774.379	22.08584
774.783	22.22634
775.186	21.81146
775.59	22.174
775.993	21.76182
776.396	22.12504
776.8	21.64041
777.203	21.66193
777.606	21.57387
778.009	21.76491
778.412	21.77776
778.815	21.88976
779.218	22.07198
779.621	21.79309
780.023	21.57335
780.426	21.79398
780.829	21.55829
781.231	22.04573
781.634	21.40307
782.036	21.58334
782.439	21.67546
782.841	21.73068
783.244	22.02862
783.646	21.72882
784.048	22.31495
784.45	21.4049
784.852	21.98558
785.254	22.20918
785.656	21.6583
786.058	21.88641
786.46	21.32118
786.862	21.81431
787.264	21.43472
787.665	21.40397
788.067	21.85173
788.468	21.22251
788.87	22.06884
789.271	21.70365
789.673	21.74727
790.074	21.6558
790.475	21.40167
790.877	22.06701
791.278	21.35238
791.679	22.13317
792.08	21.83543
792.481	21.46282
792.882	22.7094
793.283	21.65451
793.683	21.60311
794.084	22.04116
794.485	21.33163
794.886	21.82989
795.286	21.4505
795.687	21.88343
796.087	21.20603
796.487	21.16455
796.888	21.4886
797.288	21.02346
797.688	21.468
798.088	21.5235
798.489	21.61844
798.889	21.99517
799.289	21.35538
799.689	21.64408
800.088	21.61009
800.488	21.62152
800.888	21.7991
801.288	21.49417
801.687	22.31399
802.087	21.9525
802.486	21.67696
802.886	21.90253
803.285	20.9553
803.685	21.69054
804.084	21.50685
804.483	21.47124
804.882	21.52471
805.281	21.03664
805.68	22.1813
806.079	21.86523
806.478	21.80127
806.877	21.7867
807.276	21.35127
807.675	22.19619
808.074	21.90597
808.472	21.70632
808.871	21.7876
809.269	21.81723
809.668	22.22424
810.066	22.27463
810.465	21.72038
810.863	22.22148
811.261	21.79201
811.659	21.89342
812.057	21.96521
812.455	21.94961
812.853	22.2986
813.251	21.66217
813.649	21.75032
814.047	21.67482
814.445	21.22359
814.843	21.61126
815.24	22.11514
815.638	21.40115
816.035	21.92081
816.433	21.5255
816.83	21.64272
817.228	22.33939
817.625	21.30804
818.022	21.80041
818.419	21.60256
818.816	21.54865
819.213	21.91796
819.61	21.65105
820.007	22.05565
820.404	22.24172
820.801	21.85837
821.198	22.47666
821.595	22.31089
821.991	22.06961
822.388	22.77401
822.784	22.73712
823.181	22.8962
823.577	23.31335
823.974	23.26867
824.37	23.45367
824.766	23.07958
825.162	22.74119
825.558	22.98209
825.954	22.50901
826.35	22.40139
826.746	22.86344
827.142	22.66441
827.538	22.94085
827.934	22.89765
828.33	22.84906
828.725	23.16592
829.121	22.69327
829.516	22.64782
829.912	23.00004
830.307	22.03417
830.703	22.0315
831.098	22.35254
831.493	21.94664
831.888	22.32344
832.283	21.8841
832.678	21.46851
833.073	22.01538
833.468	22.17919
833.863	22.44319
834.258	22.75544
834.653	22.72459
835.048	22.85226
835.442	23.17671
835.837	22.46679
836.231	22.63574
836.626	22.89911
837.02	22.54283
837.415	22.99172
837.809	23.08785
838.203	22.29419
838.597	23.07414
838.991	21.91009
839.385	21.93788
839.779	22.64672
840.173	22.33897
840.567	22.81222
840.961	23.37235
841.355	22.78522
841.748	23.30346
842.142	23.22679
842.536	23.05178
842.929	23.27307
843.323	23.81208
843.716	23.32647
844.109	23.45198
844.503	22.90104
844.896	23.76953
845.289	23.78205
845.682	23.20567
846.075	23.34979
846.468	23.73041
846.861	23.54094
847.254	23.75757
847.647	23.07164
848.04	23.56883
848.432	23.29132
848.825	24.02612
849.217	23.46273
849.61	24.36638
850.002	23.63553
850.395	23.61804
850.787	24.11538
851.179	23.75986
851.572	23.84209
851.964	23.93486
852.356	23.9329
852.748	23.76631
853.14	23.27496
853.532	23.08344
853.924	23.25435
854.315	23.5527
854.707	23.4663
855.099	23.91481
855.491	23.96692
855.882	23.2289
856.274	23.25317
856.665	24.14286
857.056	23.80597
857.448	24.22723
857.839	24.53792
858.23	23.63015
858.621	24.20559
859.012	24.10754
859.403	23.73122
859.794	24.12124
860.185	23.79864
860.576	23.80473
860.967	23.74655
861.358	23.43669
861.748	24.29367
862.139	24.1889
862.529	23.67908
862.92	23.24357
863.31	23.74762
863.701	23.3538
864.091	23.16773
864.481	24.23781
864.872	24.15179
865.262	23.45069
865.652	23.74249
866.042	23.72267
866.432	23.08385
866.822	24.46296
867.211	23.80007
867.601	23.67329
867.991	23.942
868.381	23.39575
868.77	23.18491
869.16	23.61043
869.549	24.10088
869.939	23.38243
870.328	23.30831
870.717	23.58247
871.106	23.21521
871.496	23.68678
871.885	23.59623
872.274	22.81283
872.663	23.42948
873.052	23.55115
873.441	23.0332
873.829	23.05571
874.218	23.23161
874.607	22.82368
874.996	23.01082
875.384	23.5021
875.773	22.37676
876.161	22.8355
876.549	23.07261
876.938	22.62261
877.326	22.70182
877.714	22.83674
878.102	22.63109
878.491	22.49838
878.879	22.92285
879.267	22.59681
879.655	22.34598
880.042	23.35654
880.43	23.27917
880.818	23.15418
881.206	23.59654
881.593	23.45357
881.981	23.24995
882.368	23.56239
882.756	23.68497
883.143	23.47896
883.53	23.09247
883.918	23.30504
884.305	22.95263
884.692	22.87037
885.079	23.48184
885.466	22.98591
885.853	23.1981
886.24	23.24848
886.627	23.17099
887.014	23.06695
887.4	23.21462
887.787	23.0189
888.174	22.82258
888.56	23.79645
888.947	23.74044
889.333	23.44497
889.719	23.67081
890.106	22.73705
890.492	22.84685
890.878	23.53108
891.264	22.81213
891.65	22.76149
892.036	22.43984
892.422	22.96042
892.808	22.82312
893.194	22.52488
893.58	23.1149
893.965	23.37887
894.351	22.24854
894.736	23.05113
895.122	22.9266
895.507	23.01587
895.893	23.34432
896.278	23.03134
896.663	22.98011
897.049	22.75594
897.434	23.39751
897.819	22.68881
898.204	23.20486
898.589	22.78543
898.974	23.20926
899.359	23.03453
899.743	23.27976
900.128	22.47374
900.513	22.70067
900.897	22.35716
901.282	22.81321
901.667	22.64152
902.051	22.60924
902.435	23.23323
902.82	22.68136
903.204	22.09785
903.588	22.48115
903.972	22.3545
904.356	22.55303
904.74	22.76339
905.124	23.26672
905.508	23.12769
905.892	22.90187
906.276	23.26348
906.659	23.20619
907.043	22.78364
907.427	23.22622
907.81	23.53406
908.194	22.94472
908.577	23.27906
908.96	23.66961
909.344	22.36817
909.727	22.25362
910.11	23.50624
910.493	22.72284
910.876	22.39346
911.259	22.4796
911.642	22.94123
912.025	22.43171
912.408	21.60533
912.79	21.96412
913.173	22.32035
913.556	22.35676
913.938	22.89216
914.321	22.2365
914.703	22.04245
915.086	21.82723
915.468	22.09967
915.85	21.72805
916.232	21.7522
916.614	22.80874
916.996	22.48736
917.378	22.44538
917.76	22.26396
918.142	22.6989
918.524	22.06483
918.906	22.43299
919.288	21.85153
919.669	22.25566
920.051	22.18514
920.432	22.51654
920.814	22.36692
921.195	22.59985
921.577	22.08863
921.958	23.92836
922.339	23.1786
922.72	22.30782
923.101	22.292
923.482	22.78645
923.863	22.42512
924.244	22.40664
924.625	22.68283
925.006	21.93488
925.387	21.50602
925.767	22.75525
926.148	21.89364
926.528	22.75963
926.909	21.74261
927.289	22.26435
927.67	23.55052
928.05	21.93229
928.43	22.68807
928.81	23.18156
929.191	22.24707
929.571	22.52984
929.951	21.80655
930.331	22.36078
930.71	21.54961
931.09	21.3658
931.47	22.95589
931.85	21.88551
932.229	21.867
932.609	21.90179
932.988	22.42222
933.368	21.59553
933.747	21.60916
934.127	22.08123
934.506	21.676
934.885	21.48646
935.264	20.55628
935.643	21.97895
936.022	21.51321
936.401	21.12074
936.78	21.39277
937.159	21.96252
937.538	21.14454
937.916	22.9831
938.295	22.34604
938.674	21.97617
939.052	22.08741
939.431	21.72328
939.809	21.39649
940.187	22.45393
940.566	21.45857
940.944	21.37149
941.322	21.4845
941.7	21.82462
942.078	22.14981
942.456	21.55944
942.834	21.46246
943.212	21.1339
943.59	22.87709
943.968	20.88329
944.345	21.97236
944.723	21.36052
945.1	20.4802
945.478	22.1555
945.855	20.38863
946.233	21.8378
946.61	22.50985
946.987	22.16677
947.365	22.32591
947.742	20.62022
948.119	22.32848
948.496	21.0419
948.873	21.50399
949.25	21.0325
949.626	21.70986
950.003	21.79629
950.38	19.81146
950.756	22.68915
951.133	20.59419
951.51	20.79887
951.886	20.14299
952.262	21.79261
952.639	21.32323
953.015	21.29937
953.391	21.33772
953.767	20.97363
954.143	21.10011
954.519	20.62397
954.895	21.11463
955.271	21.85739
955.647	21.67132
956.023	21.01697
956.399	20.27565
956.774	23.19058
957.15	20.4626
957.525	23.22072
957.901	20.67395
958.276	20.02143
958.652	20.03333
959.027	23.96675
959.402	21.09146
959.777	18.81269
960.152	20.5294
960.527	22.80415
960.902	22.06263
961.277	23.68177
961.652	22.0158
962.027	19.48371
962.402	20.31106
962.776	21.95239
963.151	20.87415
963.525	22.36885
963.9	20.04538
964.274	20.49733
964.649	21.60813
965.023	19.05558
965.397	21.66724
965.771	20.92011
966.146	20.12319
966.52	19.41256
966.894	19.32882
967.268	21.38044
967.641	18.01448
968.015	18.42632
968.389	21.30684
968.763	19.66577
969.136	20.55182
969.51	19.94337
969.883	21.05424
970.257	21.53736
970.63	21.74024
971.003	19.36981
971.377	21.06034
971.75	20.78033
972.123	21.12437
972.496	18.75532
972.869	22.45182
973.242	22.29508
973.615	18.64092
973.988	22.82585
974.36	19.52882
974.733	20.76325
975.106	20.46125
975.478	19.49666
975.851	19.92295
976.223	21.26584
976.596	19.77885
976.968	20.81707
977.34	20.06444
977.712	19.02269
978.085	19.46639
978.457	19.01995
978.829	19.2143
979.201	19.17916
979.573	19.99839
979.944	19.88236
980.316	20.28262
980.688	17.99397
981.059	21.32028
981.431	21.27923
981.803	19.68219
982.174	21.62277
982.545	20.33532
982.917	19.61198
983.288	21.56772
983.659	20.8577
984.03	19.34142
984.401	19.63596
984.772	18.57389
985.143	18.03027
985.514	20.66103
985.885	20.03103
986.256	19.66413
986.627	20.47633
986.997	19.81901
987.368	18.56867
987.738	18.70212
988.109	20.07651
988.479	20.01244
988.85	19.0725
989.22	19.2195
989.59	18.11071
989.96	20.30291
990.33	19.19603
990.7	17.72444
991.07	18.80393
991.44	20.01464
991.81	17.65135
992.18	17.96144
992.549	18.8807
992.919	17.39085
993.289	18.52706
993.658	17.81561
994.028	18.843
994.397	19.3698
994.766	19.93597
995.136	18.89464
995.505	19.10863
995.874	19.81368
996.243	18.79734
996.612	20.90307
996.981	19.82328
997.35	19.13563
997.719	18.84844
998.088	17.85654
998.456	19.63245
998.825	20.99456
999.194	17.73672
999.562	23.91464
999.931	21.28272
1000.299	21.71461
1000.667	22.61432
1001.036	22.88037
1001.404	22.17004
1001.772	17.42031
1002.14	21.44347
1002.508	16.80821
1002.876	19.43136
1003.244	19.72374
1003.612	20.41915
1003.98	20.17276
1004.347	20.94867
1004.715	18.24987
1005.083	18.51267
1005.45	20.0015
1005.818	18.44696
1006.185	21.54184
1006.552	20.72115
1006.92	17.20805
1007.287	20.26962
1007.654	19.71368
1008.021	14.88908
1008.388	22.26458
1008.755	18.7906
1009.122	20.41941
1009.489	22.66661
1009.856	24.40855
1010.222	21.53105
1010.589	20.02948
1010.956	20.56893
1011.322	16.8485
1011.689	19.95496
1012.055	22.39277
1012.421	20.19442
1012.788	20.12724
1013.154	21.49157
1013.52	19.85191
1013.886	17.09623
1014.252	18.55897
1014.618	22.12679
1014.984	21.53509
1015.35	17.52716
1015.716	17.69603
1016.081	21.10539
1016.447	19.50193
1016.813	22.07087
1017.178	22.53433
1017.544	20.9166
1017.909	20.56912
1018.274	23.17596
1018.64	20.02103
1019.005	20.95119
1019.37	20.81136
1019.735	22.6004
1020.1	13.71264
1020.465	22.09277
1020.83	22.54745
1021.195	24.12991
1021.56	23.77156
1021.924	27.50346
1022.289	25.01555
1022.654	20.42418
1023.018	21.76437
1023.383	20.98973
1023.747	19.00502
1024.111	16.82642
1024.476	26.74798
1024.84	19.71062
1025.204	24.04102
1025.568	20.39492
1025.932	20.54858
1026.296	28.25585
1026.66	27.52524
1027.024	27.55954
1027.387	20.86124
1027.751	21.9392
1028.115	19.34054
1028.478	26.05955
1028.842	19.766
1029.205	28.55201
1029.569	21.95803
1029.932	17.98269
1030.295	25.85998
1030.659	19.59517
1031.022	23.37396
1031.385	28.66502
1031.748	28.25847
1032.111	17.282
1032.474	29.43411
1032.836	17.53248
1033.199	24.8608
1033.562	26.51998
1033.924	26.50542
1034.287	20.99485
1034.65	31.28973
1035.012	30.62133
1035.374	25.99843
1035.737	28.32316
1036.099	26.65394
1036.461	31.80125
1036.823	22.29267
1037.185	38.06546
1037.547	31.68626
1037.909	28.18457
1038.271	16.5367
1038.633	35.99466
1038.995	16.84227
1039.356	8.18678
1039.718	31.87223
1040.08	34.1987
1040.441	27.93432
1040.803	22.75188
1041.164	33.94336
1041.525	27.4706
1041.886	19.68215
1042.248	34.44624
1042.609	33.32107
1042.97	31.4634
1043.331	23.31122
1043.692	15.70198
1044.053	8.02849
1044.413	27.02651
1044.774	17.48299
1045.135	29.30706
1045.495	38.62607
1045.856	34.9696
1046.216	32.94685
1046.577	20.98853
1046.937	31.97121
1047.298	34.75248
