Data from 1016water_Reflection__24__20-42-38-676.txt Node

Date: Thu Oct 16 20:42:38 AST 2025
User: lin
Spectrometer: SR600411
Trigger mode: 0
Integration Time (sec): 5.601500E-2
Scans to average: 5
Nonlinearity correction enabled: true
Boxcar width: 0
Storing dark spectrum: false
XAxis mode: Wavelengths
Number of Pixels in Spectrum: 2048
>>>>>Begin Spectral Data<<<<<
187.982	66.99756
188.456	55.46516
188.93	56.28314
189.403	64.61254
189.877	57.51642
190.351	59.81442
190.825	57.70744
191.298	53.18768
191.772	62.54016
192.246	65.54938
192.719	45.03415
193.193	45.44481
193.666	66.37258
194.139	64.99098
194.613	52.92775
195.086	63.69134
195.559	59.55357
196.033	65.71778
196.506	67.24187
196.979	65.07474
197.452	72.22395
197.925	49.61967
198.398	59.92857
198.871	54.64828
199.344	63.44722
199.816	49.49927
200.289	63.29656
200.762	54.53358
201.235	43.38333
201.707	84.3849
202.18	45.92177
202.652	68.2563
203.125	39.84851
203.597	76.81587
204.07	69.35688
204.542	50.55297
205.014	33.8809
205.486	80.63941
205.959	53.06379
206.431	48.81512
206.903	79.04919
207.375	63.07093
207.847	59.14813
208.319	55.55027
208.791	17.13892
209.263	46.31111
209.734	73.12911
210.206	57.83821
210.678	75.99548
211.15	48.7336
211.621	14.81144
212.093	55.39816
212.564	41.66147
213.036	55.55027
213.507	55.78483
213.979	54.00786
214.45	29.80338
214.921	68.74523
215.392	44.13872
215.864	60.18005
216.335	55.21731
216.806	34.14086
217.277	60.43525
217.748	40.47017
218.219	54.75778
218.69	58.27087
219.161	42.21787
219.631	36.83685
220.102	61.37249
220.573	69.4164
221.043	36.45393
221.514	65.97507
221.985	25.24882
222.455	56.1475
222.926	70.47186
223.396	39.41815
223.866	58.19083
224.337	40.19121
224.807	44.54007
225.277	65.42847
225.747	34.55272
226.217	60.86413
226.687	61.93403
227.157	59.5198
227.627	29.62628
228.097	44.43872
228.567	45.626
229.037	70.18799
229.507	69.80689
229.977	48.75434
230.446	54.12307
230.916	47.31589
231.386	55.05182
231.855	63.01972
232.325	57.49418
232.794	71.06945
233.263	65.37878
233.733	64.56117
234.202	49.99554
234.671	71.13007
235.14	61.5348
235.61	50.84161
236.079	79.99857
236.548	57.46705
237.017	45.75691
237.486	56.66083
237.955	64.55338
238.424	64.83105
238.892	80.5522
239.361	39.12609
239.83	63.92885
240.299	52.23218
240.767	43.01908
241.236	57.68727
241.704	51.32184
242.173	42.49612
242.641	32.5544
243.109	73.62287
243.578	41.78781
244.046	99.08237
244.514	86.5148
244.982	41.66088
245.451	57.74304
245.919	35.52286
246.387	84.4421
246.855	74.41536
247.323	44.08828
247.791	33.3299
248.258	61.38139
248.726	54.16313
249.194	58.9232
249.662	61.19087
250.129	38.59113
250.597	43.95985
251.064	60.77949
251.532	55.29656
251.999	56.13478
252.467	145.32084
252.934	64.14611
253.401	117.02498
253.869	40.73686
254.336	62.34899
254.803	49.99515
255.27	54.87402
255.737	69.40819
256.204	62.49517
256.671	54.83414
257.138	74.99732
257.605	84.90431
258.072	50.76279
258.539	93.20259
259.005	51.34768
259.472	54.64693
259.939	71.4246
260.405	19.60625
260.872	37.49628
261.338	77.13919
261.805	41.9295
262.271	70.48677
262.737	79.80437
263.203	41.23246
263.67	51.54159
264.136	71.26084
264.602	53.84231
265.068	51.15853
265.534	53.05638
266	44.89315
266.466	44.4396
266.932	58.13538
267.398	53.71304
267.864	75.77659
268.329	71.69385
268.795	62.17933
269.261	117.81126
269.726	59.71879
270.192	56.81176
270.657	61.20143
271.123	44.63737
271.588	56.51726
272.053	44.92415
272.519	61.41135
272.984	67.68949
273.449	44.99705
273.914	60.99529
274.379	53.53047
274.844	66.97648
275.309	41.75385
275.774	66.33216
276.239	66.38129
276.704	50.44495
277.169	80.94981
277.634	40.20156
278.098	60.60137
278.563	46.78361
279.028	48.23108
279.492	52.58047
279.957	74.99673
280.421	51.60983
280.886	54.45048
281.35	76.23399
281.814	82.14123
282.279	67.68949
282.743	89.85382
283.207	49.99445
283.671	73.76581
284.135	68.79468
284.599	80.57933
285.063	62.49517
285.527	59.48989
285.991	67.77388
286.455	95.29336
286.919	73.32926
287.382	77.77377
287.846	35.99543
288.31	50.61327
288.773	90.27652
289.237	72.97008
289.7	57.54203
290.164	68.26476
290.627	111.8441
291.09	53.46036
291.554	82.41497
292.017	67.67248
292.48	47.65825
292.943	38.09033
293.406	38.55032
293.869	62.0649
294.332	72.63733
294.795	27.15732
295.258	73.78246
295.721	57.27656
296.184	37.2854
296.646	58.97062
297.109	54.05041
297.572	72.61573
298.034	57.57256
298.497	53.77565
298.959	68.58308
299.422	73.52679
299.884	68.2197
300.346	2.29846
300.809	29.84797
301.271	49.99514
301.733	129.4169
302.195	48.18866
302.657	90.62338
303.119	36.36061
303.581	81.31594
304.043	20.72903
304.505	61.85113
304.967	52.12301
305.429	42.53082
305.891	73.43502
306.352	50.72122
306.814	37.49665
307.275	125.42746
307.737	29.30796
308.198	64.87958
308.66	59.5198
309.121	22.53275
309.583	98.66647
310.044	-17.38851
310.505	43.39106
310.966	75.30565
311.428	67.85351
311.889	44.03137
312.35	76.51765
312.811	31.00228
313.272	94.11709
313.733	48.68045
314.193	79.10382
314.654	56.98473
315.115	92.13355
315.576	6.17191
316.036	93.54727
316.497	35.43945
316.957	60.9039
317.418	6.66611
317.878	67.51628
318.339	63.2875
318.799	54.54005
319.259	49.99693
319.72	65.71116
320.18	61.60189
320.64	98.61092
321.1	64.76874
321.56	59.59123
322.02	60.572
322.48	47.43204
322.94	70.11133
323.4	70.20887
323.86	55.35165
324.319	48.60755
324.779	90.62392
325.239	27.02269
325.698	64.93159
326.158	32.09526
326.617	92.18659
327.077	20.33709
327.536	69.99667
327.996	144.83506
328.455	87.05693
328.914	54.64694
329.373	47.99629
329.832	60.41211
330.292	118.84364
330.751	101.26602
331.21	54.54059
331.668	85.50555
332.127	71.79174
332.586	29.1647
333.045	74.22312
333.504	51.87312
333.962	78.84444
334.421	129.4169
334.88	55.73472
335.338	80.37049
335.797	34.6633
336.255	74.32152
336.714	52.56025
337.172	80.66859
337.63	0
338.088	109.86068
338.547	45.77905
339.005	75.9006
339.463	43.23784
339.921	52.21778
340.379	53.08242
340.837	56.51726
341.295	58.06152
341.753	45.19831
342.21	53.08242
342.668	52.43496
343.126	27.2697
343.584	62.15699
344.041	40.77177
344.499	93.57668
344.956	57.49612
345.414	90.32097
345.871	26.46665
346.328	88.60602
346.786	59.31639
347.243	89.68894
347.7	62.68346
348.157	37.95792
348.614	106.25105
349.071	30.49052
349.528	72.21792
349.985	76.72003
350.442	63.88395
350.899	34.77847
351.356	116.87071
351.812	53.14767
352.269	76.14286
352.726	39.50234
353.182	81.47906
353.639	80.17669
354.095	54.0187
354.552	58.48547
355.008	75.40535
355.465	52.47026
355.921	45.2319
356.377	52.4221
356.833	36.7776
357.289	70.43003
357.745	79.30751
358.201	43.96475
358.657	66.38129
359.113	56.69631
359.569	41.76454
360.025	67.52577
360.481	61.30744
360.937	42.77168
361.392	63.5216
361.848	68.63185
362.303	62.58934
362.759	79.99414
363.214	56.74776
363.67	64.27617
364.125	54.21799
364.581	55.89311
365.036	60.85873
365.491	55.5023
365.946	57.84629
366.401	52.87311
366.856	57.94191
367.311	56.75494
367.766	62.17037
368.221	55.11081
368.676	59.97961
369.131	62.4789
369.586	57.01479
370.041	54.35547
370.495	54.32727
370.95	53.8595
371.404	56.30357
371.859	54.1866
372.313	57.61534
372.768	55.6681
373.222	54.01348
373.676	52.12746
374.131	52.97984
374.585	54.94077
375.039	52.42417
375.493	57.90508
375.947	54.86422
376.401	52.7858
376.855	53.81406
377.309	53.80538
377.763	55.08838
378.217	55.37618
378.67	55.00958
379.124	58.68498
379.578	56.02479
380.031	55.58899
380.485	53.67584
380.938	55.98029
381.392	54.10957
381.845	53.81031
382.299	54.48252
382.752	53.69408
383.205	54.66268
383.658	52.36601
384.111	54.80268
384.564	55.38365
385.018	55.02474
385.471	55.49336
385.923	55.38782
386.376	53.9378
386.829	55.79479
387.282	56.13319
387.735	55.30056
388.187	55.94509
388.64	56.55318
389.093	55.55953
389.545	55.4078
389.998	57.94625
390.45	54.54087
390.902	54.43359
391.355	55.2463
391.807	56.55762
392.259	56.07881
392.711	57.10893
393.163	56.4195
393.615	56.45629
394.068	55.64472
394.519	56.35879
394.971	55.7119
395.423	55.68839
395.875	56.29231
396.327	55.63341
396.779	55.96155
397.23	56.28202
397.682	55.73392
398.133	56.01259
398.585	55.6801
399.036	54.79734
399.488	54.39152
399.939	55.34264
400.39	55.0007
400.842	54.96851
401.293	54.48681
401.744	54.03212
402.195	54.45084
402.646	53.99032
403.097	53.89152
403.548	53.9934
403.999	53.78258
404.45	53.86185
404.9	53.79287
405.351	53.37195
405.802	53.6715
406.253	53.2517
406.703	53.05019
407.154	52.74063
407.604	52.44792
408.055	52.63571
408.505	52.07909
408.955	51.91537
409.406	52.68277
409.856	52.12967
410.306	52.21861
410.756	51.52538
411.206	51.66448
411.656	51.61265
412.106	51.1323
412.556	50.72116
413.006	50.91637
413.456	51.24324
413.905	50.24671
414.355	50.41367
414.805	50.4931
415.254	49.89349
415.704	50.35967
416.153	49.28439
416.603	49.55036
417.052	49.33785
417.502	49.52427
417.951	49.29288
418.4	48.77628
418.849	48.50939
419.298	48.86466
419.748	48.12124
420.197	48.67819
420.646	47.61115
421.094	47.45148
421.543	48.07518
421.992	47.30983
422.441	47.21658
422.89	47.165
423.338	46.89541
423.787	47.34467
424.236	46.68765
424.684	46.76527
425.133	46.28057
425.581	46.45073
426.029	46.58328
426.478	46.26522
426.926	46.10675
427.374	45.88716
427.822	46.49548
428.27	45.87523
428.718	45.59605
429.166	45.68638
429.614	45.54668
430.062	45.38967
430.51	46.30807
430.958	46.17153
431.406	45.60668
431.853	46.30869
432.301	45.34566
432.749	45.577
433.196	44.8727
433.644	44.77143
434.091	45.19728
434.538	45.15731
434.986	44.73765
435.433	45.5508
435.88	44.67845
436.327	44.32623
436.775	44.78715
437.222	44.92821
437.669	44.89325
438.116	44.73095
438.563	44.13178
439.009	44.78715
439.456	44.6069
439.903	44.9594
440.35	44.54994
440.796	44.862
441.243	44.74928
441.689	44.64991
442.136	44.3175
442.582	44.3612
443.029	44.99023
443.475	44.29824
443.921	44.66947
444.368	44.50121
444.814	44.06882
445.26	44.142
445.706	44.6342
446.152	44.49841
446.598	44.26716
447.044	44.34665
447.49	44.75719
447.936	44.31431
448.381	44.58579
448.827	44.66423
449.273	44.85913
449.718	45.05535
450.164	44.82338
450.61	44.66817
451.055	44.53374
451.5	44.65602
451.946	44.71619
452.391	44.92173
452.836	44.63997
453.282	44.82693
453.727	45.08531
454.172	45.14162
454.617	45.2697
455.062	45.38789
455.507	45.57769
455.952	45.63577
456.396	45.41274
456.841	45.37474
457.286	45.44124
457.731	45.68938
458.175	45.80565
458.62	45.76332
459.064	45.93267
459.509	45.83135
459.953	45.8326
460.398	46.01981
460.842	46.3774
461.286	46.01218
461.73	46.29927
462.174	46.46046
462.619	46.36916
463.063	47.10862
463.507	46.81382
463.951	47.26496
464.394	47.09791
464.838	47.5723
465.282	47.43617
465.726	47.69873
466.17	47.47848
466.613	47.5254
467.057	47.65006
467.5	48.50193
467.944	48.72889
468.387	48.64527
468.831	48.73635
469.274	48.91821
469.717	49.0519
470.16	49.82032
470.603	49.81891
471.047	50.19386
471.49	50.17066
471.933	50.12832
472.376	50.6001
472.818	50.53179
473.261	50.80764
473.704	50.59054
474.147	51.41627
474.59	50.9988
475.032	51.33327
475.475	52.01591
475.917	51.62485
476.36	51.81634
476.802	52.15593
477.245	51.939
477.687	52.85009
478.129	52.56644
478.571	53.1121
479.013	53.21626
479.456	53.20941
479.898	53.84763
480.34	53.63261
480.782	53.89983
481.224	53.57241
481.665	53.92034
482.107	53.83584
482.549	54.07857
482.991	54.08031
483.432	54.02786
483.874	54.46769
484.315	54.43853
484.757	54.16339
485.198	55.20468
485.64	55.2259
486.081	54.79438
486.522	55.25314
486.963	55.25828
487.405	55.23848
487.846	55.61198
488.287	55.48439
488.728	55.78195
489.169	56.09888
489.61	55.86562
490.05	56.16969
490.491	56.56678
490.932	56.20262
491.373	55.96558
491.813	56.51789
492.254	56.23883
492.694	56.34183
493.135	56.3667
493.575	56.25607
494.016	56.41641
494.456	56.18306
494.896	56.35472
495.336	56.88974
495.777	57.06829
496.217	56.97743
496.657	56.92304
497.097	56.8064
497.537	56.93709
497.977	56.52451
498.416	56.54732
498.856	57.74275
499.296	57.55063
499.736	57.76913
500.175	57.32557
500.615	57.8511
501.054	58.18997
501.494	57.94157
501.933	58.13068
502.373	57.99508
502.812	58.46238
503.251	58.43982
503.69	58.65674
504.129	59.03113
504.569	59.14813
505.008	59.32471
505.447	58.88945
505.886	59.43114
506.324	59.74948
506.763	59.41015
507.202	59.54387
507.641	59.71139
508.079	60.23895
508.518	60.87188
508.957	61.03864
509.395	60.93908
509.834	60.85187
510.272	61.35015
510.71	61.30847
511.149	60.98054
511.587	61.9979
512.025	61.6662
512.463	61.74929
512.901	61.82365
513.339	61.86627
513.777	63.34382
514.215	62.58456
514.653	62.60319
515.091	63.13918
515.529	63.23145
515.966	63.19037
516.404	63.68858
516.842	63.91846
517.279	63.81406
517.717	64.00693
518.154	64.21451
518.592	64.4871
519.029	64.39935
519.466	64.66482
519.904	64.80234
520.341	64.99113
520.778	64.98915
521.215	65.40497
521.652	65.85094
522.089	65.54979
522.526	66.1196
522.963	66.31816
523.399	66.17601
523.836	66.73728
524.273	67.02815
524.71	67.64599
525.146	67.64622
525.583	67.25155
526.019	67.36736
526.456	67.85412
526.892	68.28249
527.328	68.19431
527.765	68.32401
528.201	68.59908
528.637	68.90405
529.073	68.83419
529.509	69.31487
529.945	69.76862
530.381	69.78207
530.817	69.7664
531.253	69.872
531.689	70.11224
532.124	70.07814
532.56	69.90187
532.996	70.40223
533.431	70.60557
533.867	70.5467
534.302	71.27277
534.738	71.11738
535.173	71.20542
535.608	71.04295
536.044	71.76284
536.479	71.55546
536.914	71.53204
537.349	71.29388
537.784	71.67886
538.219	71.92418
538.654	71.24185
539.089	71.31203
539.524	71.64333
539.959	71.64243
540.393	71.89458
540.828	72.00008
541.263	73.15216
541.697	72.61784
542.132	72.41145
542.566	71.99293
543.001	72.05869
543.435	72.39497
543.869	72.45269
544.303	72.46976
544.738	72.94138
545.172	72.85567
545.606	72.74278
546.04	73.04008
546.474	72.27831
546.908	72.60155
547.342	72.35974
547.775	72.78808
548.209	71.49569
548.643	72.42079
549.077	72.55374
549.51	72.17875
549.944	71.71931
550.377	71.61145
550.811	71.52834
551.244	71.40036
551.677	71.07143
552.111	71.58038
552.544	71.19412
552.977	70.33256
553.41	69.79418
553.843	69.84791
554.276	69.74404
554.709	68.85284
555.142	69.36502
555.575	69.1142
556.008	69.72522
556.44	68.68836
556.873	68.73639
557.306	68.16602
557.738	68.33209
558.171	68.08879
558.603	67.58005
559.036	67.36658
559.468	66.81563
559.9	67.31061
560.333	66.99141
560.765	66.97793
561.197	66.66625
561.629	66.56651
562.061	66.10768
562.493	66.46718
562.925	66.57266
563.357	65.58766
563.789	65.14656
564.22	65.23806
564.652	65.15244
565.084	64.93575
565.515	64.62817
565.947	64.65217
566.378	64.16092
566.81	64.30945
567.241	63.87989
567.672	63.97989
568.104	64.41587
568.535	63.7443
568.966	63.2565
569.397	63.02696
569.828	62.32686
570.259	61.79451
570.69	61.74091
571.121	61.02268
571.552	61.44847
571.983	61.34033
572.414	60.6846
572.844	60.59056
573.275	60.39699
573.705	60.37702
574.136	60.03511
574.566	59.97059
574.997	59.94877
575.427	59.56982
575.857	59.79655
576.288	59.19916
576.718	59.45822
577.148	59.34884
577.578	59.10873
578.008	58.61459
578.438	58.63686
578.868	58.29458
579.298	57.65155
579.728	57.31111
580.157	57.30427
580.587	56.62692
581.017	56.50707
581.446	56.18252
581.876	56.00907
582.305	55.80251
582.735	56.01401
583.164	56.13927
583.593	55.47792
584.023	55.38441
584.452	55.49587
584.881	54.6373
585.31	55.32346
585.739	54.70424
586.168	54.44891
586.597	54.47848
587.026	54.26944
587.455	53.94306
587.884	53.90855
588.312	53.78012
588.741	53.20073
589.17	53.12678
589.598	53.04713
590.027	52.65826
590.455	52.48587
590.884	52.37264
591.312	52.05561
591.74	52.18369
592.168	52.22141
592.597	51.91233
593.025	51.64767
593.453	51.06117
593.881	51.38162
594.309	51.20662
594.737	50.84012
595.165	50.48692
595.592	50.67769
596.02	50.44385
596.448	50.0918
596.875	49.96431
597.303	49.75513
597.73	49.96431
598.158	50.15356
598.585	49.78159
599.013	49.29276
599.44	49.4655
599.867	49.11133
600.294	48.92438
600.722	48.83824
601.149	48.48953
601.576	48.73514
602.003	48.41265
602.43	47.95994
602.856	47.95665
603.283	47.97836
603.71	47.60679
604.137	48.31347
604.563	48.03055
604.99	48.21198
605.416	47.73683
605.843	48.0463
606.269	47.78951
606.696	47.18475
607.122	47.06694
607.548	47.14404
607.975	47.22405
608.401	46.95225
608.827	46.65604
609.253	46.64468
609.679	46.63899
610.105	46.73124
610.531	46.72925
610.956	46.80878
611.382	46.75987
611.808	46.88739
612.234	46.28423
612.659	46.26845
613.085	46.14199
613.51	46.25918
613.936	46.12806
614.361	46.33105
614.786	46.31487
615.212	46.18352
615.637	46.01971
616.062	45.90357
616.487	46.1655
616.912	45.91927
617.337	45.94923
617.762	46.34823
618.187	46.06896
618.612	46.12312
619.037	45.91378
619.461	45.87676
619.886	46.27777
620.311	46.31551
620.735	46.15601
621.16	46.40704
621.584	46.53774
622.008	46.57144
622.433	46.11854
622.857	45.88823
623.281	45.80451
623.705	45.87269
624.13	45.79285
624.554	45.54702
624.978	45.43196
625.402	45.138
625.826	45.28761
626.249	45.34739
626.673	45.32545
627.097	45.31098
627.521	45.65616
627.944	45.45971
628.368	45.37428
628.791	46.15523
629.215	45.69652
629.638	45.78974
630.061	45.85142
630.485	45.83975
630.908	45.83794
631.331	45.85586
631.754	46.51253
632.177	46.47045
632.6	46.44207
633.023	46.68982
633.446	46.9307
633.869	46.6179
634.292	47.41229
634.715	47.84118
635.137	47.30781
635.56	47.93097
635.982	47.90883
636.405	47.65093
636.827	48.19292
637.25	47.85569
637.672	47.41095
638.094	47.67744
638.517	47.76293
638.939	48.16846
639.361	48.57051
639.783	48.90259
640.205	48.78496
640.627	48.62198
641.049	48.46677
641.471	48.61962
641.893	48.88001
642.314	49.01127
642.736	49.10399
643.158	49.0642
643.579	49.59342
644.001	49.59445
644.422	49.96395
644.844	49.98121
645.265	49.83032
645.686	49.58422
646.107	50.0068
646.529	50.08359
646.95	50.72195
647.371	50.40128
647.792	50.99718
648.213	50.9729
648.634	50.77165
649.055	51.10299
649.475	51.59733
649.896	51.53698
650.317	51.44007
650.737	52.02052
651.158	51.92071
651.578	52.10135
651.999	52.50061
652.419	52.20875
652.84	52.66413
653.26	52.10371
653.68	52.74864
654.1	53.27649
654.521	52.64378
654.941	52.97097
655.361	53.96315
655.781	53.63619
656.2	54.09106
656.62	53.66829
657.04	54.01241
657.46	54.27485
657.879	53.81472
658.299	54.53851
658.719	53.5425
659.138	53.9574
659.558	54.51868
659.977	54.80751
660.396	55.22935
660.816	54.97179
661.235	55.29506
661.654	55.61015
662.073	54.77055
662.492	55.52194
662.911	54.9216
663.33	55.2178
663.749	56.42045
664.168	56.41227
664.587	56.38253
665.006	56.97887
665.424	56.26926
665.843	56.74153
666.261	56.3869
666.68	56.75417
667.098	57.01605
667.517	56.89451
667.935	57.13943
668.353	57.08568
668.772	56.74949
669.19	56.7867
669.608	56.76545
670.026	57.49776
670.444	56.92707
670.862	57.79197
671.28	57.71819
671.698	57.47911
672.115	57.20069
672.533	56.75068
672.951	57.88459
673.368	57.05506
673.786	56.92602
674.203	56.99461
674.621	57.50031
675.038	57.05235
675.456	57.65057
675.873	56.99255
676.29	57.2953
676.707	57.53732
677.124	57.39565
677.541	57.55641
677.958	57.44748
678.375	56.9759
678.792	56.96739
679.209	57.02296
679.626	56.26876
680.043	56.99178
680.459	56.97237
680.876	56.15771
681.292	56.30336
681.709	55.77394
682.125	55.85328
682.542	55.93989
682.958	56.01617
683.374	55.85577
683.79	55.63788
684.207	55.31931
684.623	55.00604
685.039	55.15411
685.455	54.82777
685.871	54.80871
686.286	55.01067
686.702	54.18957
687.118	54.66577
687.534	54.59204
687.949	54.19312
688.365	54.14205
688.781	54.03908
689.196	53.63128
689.611	54.06875
690.027	53.26939
690.442	53.14849
690.857	53.28893
691.273	52.57858
691.688	53.06975
692.103	52.06836
692.518	52.72187
692.933	52.29044
693.348	52.35702
693.763	51.92514
694.177	51.66145
694.592	51.31739
695.007	50.96198
695.421	51.09871
695.836	50.59237
696.25	51.00174
696.665	50.50159
697.079	50.48125
697.494	49.64623
697.908	50.0153
698.322	49.7446
698.736	49.47385
699.151	49.39301
699.565	49.13888
699.979	48.9471
700.393	48.73785
700.806	48.96026
701.22	48.25836
701.634	48.28475
702.048	47.11922
702.461	46.93656
702.875	46.74335
703.289	46.81415
703.702	46.56675
704.116	46.24678
704.529	45.7049
704.942	45.66881
705.356	45.50529
705.769	44.57499
706.182	44.79341
706.595	44.69945
707.008	44.74154
707.421	44.13222
707.834	44.1328
708.247	43.97912
708.66	43.20501
709.072	43.76034
709.485	43.40197
709.898	43.26863
710.31	42.51168
710.723	42.62222
711.135	42.2135
711.548	42.31131
711.96	41.42839
712.373	41.70441
712.785	40.7046
713.197	40.74387
713.609	40.35408
714.021	39.98063
714.433	39.51938
714.845	39.70153
715.257	38.86648
715.669	38.9209
716.081	38.61043
716.493	38.64108
716.904	38.52934
717.316	38.6052
717.727	38.41594
718.139	38.3766
718.55	37.85108
718.962	37.82794
719.373	37.48129
719.784	36.91017
720.196	36.36642
720.607	36.30196
721.018	35.71659
721.429	35.37045
721.84	35.18993
722.251	35.19754
722.662	35.24655
723.073	35.33707
723.483	34.89307
723.894	34.83409
724.305	34.51082
724.715	34.27603
725.126	34.1161
725.536	33.90607
725.947	33.68657
726.357	33.23637
726.768	33.28452
727.178	32.75074
727.588	32.78297
727.998	32.15342
728.408	32.07107
728.818	32.14849
729.228	31.82647
729.638	32.0229
730.048	31.35059
730.458	31.47252
730.868	31.20902
731.277	31.29304
731.687	30.44695
732.097	30.9282
732.506	30.53568
732.916	30.58502
733.325	30.24226
733.734	30.37451
734.144	29.83858
734.553	29.89646
734.962	29.40643
735.371	29.34358
735.78	29.11367
736.189	29.36538
736.598	28.8875
737.007	28.87823
737.416	28.13674
737.825	28.4137
738.233	28.18073
738.642	28.20454
739.051	27.5067
739.459	27.82848
739.868	27.47412
740.276	27.36239
740.684	27.13173
741.093	27.30001
741.501	26.98949
741.909	26.47331
742.317	26.93191
742.725	26.08361
743.133	26.50251
743.541	25.95068
743.949	26.33436
744.357	25.69269
744.765	26.0555
745.173	26.07438
745.58	26.21291
745.988	25.82248
746.396	25.82714
746.803	25.5189
747.211	25.84203
747.618	25.75957
748.025	25.41505
748.433	25.39474
748.84	25.30706
749.247	25.24428
749.654	24.8392
750.061	25.16002
750.468	24.8186
750.875	24.89227
751.282	24.57277
751.689	24.85294
752.096	24.2334
752.502	24.37937
752.909	24.18823
753.316	23.97139
753.722	24.21233
754.129	23.80653
754.535	24.29076
754.941	23.69812
755.348	24.22677
755.754	23.60739
756.16	23.80381
756.566	23.32671
756.972	23.7534
757.378	23.61977
757.784	23.23629
758.19	23.26732
758.596	23.41108
759.002	23.67416
759.408	22.97819
759.813	23.57856
760.219	23.33124
760.624	23.26064
761.03	22.99596
761.435	22.83375
761.841	22.60554
762.246	22.38221
762.651	23.14745
763.057	22.48078
763.462	23.3484
763.867	23.2441
764.272	23.50246
764.677	23.37087
765.082	23.10931
765.487	23.24117
765.892	22.64478
766.296	23.20324
766.701	22.3055
767.106	23.19892
767.51	22.22849
767.915	22.29503
768.319	22.23224
768.724	22.11839
769.128	22.07675
769.532	21.68596
769.936	22.32027
770.341	21.93066
770.745	22.31532
771.149	22.0578
771.553	21.86829
771.957	22.08568
772.361	21.79797
772.764	22.3733
773.168	21.68676
773.572	22.49847
773.976	21.80831
774.379	22.52758
774.783	21.85239
775.186	21.60364
775.59	22.11942
775.993	21.55127
776.396	21.93281
776.8	21.53424
777.203	22.10733
777.606	21.59271
778.009	21.92308
778.412	21.87327
778.815	21.6165
779.218	22.36023
779.621	22.16228
780.023	21.49615
780.426	21.5355
780.829	21.68733
781.231	21.64229
781.634	21.17966
782.036	21.86304
782.439	22.01334
782.841	21.81798
783.244	21.7868
783.646	21.52842
784.048	22.13711
784.45	21.38804
784.852	21.72743
785.254	22.29591
785.656	21.42717
786.058	22.13857
786.46	21.38071
786.862	21.66684
787.264	21.57447
787.665	21.39912
788.067	21.79974
788.468	21.25058
788.87	21.76044
789.271	21.73692
789.673	21.66754
790.074	21.87209
790.475	21.4167
790.877	22.06958
791.278	21.4558
791.679	21.81901
792.08	22.08032
792.481	21.84363
792.882	22.54421
793.283	22.00937
793.683	21.66058
794.084	21.84939
794.485	21.87395
794.886	21.96237
795.286	21.30024
795.687	21.64524
796.087	21.58479
796.487	21.27103
796.888	21.95771
797.288	21.01242
797.688	21.7437
798.088	21.70132
798.489	21.41068
798.889	22.21214
799.289	21.4488
799.689	22.04438
800.088	21.63085
800.488	21.62455
800.888	22.09141
801.288	21.79192
801.687	22.09964
802.087	21.63137
802.486	21.61941
802.886	21.4121
803.285	21.0229
803.685	21.94454
804.084	21.45135
804.483	21.69362
804.882	21.7766
805.281	21.55861
805.68	21.85608
806.079	21.74462
806.478	22.00694
806.877	21.82667
807.276	21.85645
807.675	22.07615
808.074	21.76726
808.472	21.70965
808.871	21.90645
809.269	21.75432
809.668	21.77758
810.066	22.1368
810.465	21.94906
810.863	22.23452
811.261	21.63402
811.659	21.86443
812.057	22.35301
812.455	21.5971
812.853	22.16211
813.251	21.69662
813.649	21.75969
814.047	22.11691
814.445	21.47569
814.843	21.77804
815.24	21.95929
815.638	21.49741
816.035	21.82051
816.433	21.4142
816.83	21.6621
817.228	21.9067
817.625	21.49544
818.022	21.71573
818.419	21.59699
818.816	21.69382
819.213	21.93741
819.61	21.38855
820.007	21.92793
820.404	22.07273
820.801	21.8249
821.198	22.34934
821.595	22.21748
821.991	21.90995
822.388	22.66526
822.784	22.53569
823.181	22.88542
823.577	23.44497
823.974	23.15432
824.37	23.18313
824.766	23.00261
825.162	22.73427
825.558	23.04963
825.954	22.43148
826.35	22.33644
826.746	22.72694
827.142	22.47341
827.538	23.0369
827.934	22.74186
828.33	22.70273
828.725	23.01886
829.121	22.78494
829.516	22.38356
829.912	22.98025
830.307	22.07476
830.703	22.47862
831.098	22.00833
831.493	21.76461
831.888	22.25906
832.283	21.97104
832.678	21.68719
833.073	21.98977
833.468	22.37517
833.863	22.38944
834.258	22.87014
834.653	22.573
835.048	22.83547
835.442	23.23421
835.837	22.63532
836.231	22.91226
836.626	22.76134
837.02	22.49419
837.415	22.84928
837.809	23.29336
838.203	22.22291
838.597	22.5153
838.991	22.00929
839.385	22.14215
839.779	22.88906
840.173	22.4538
840.567	22.82815
840.961	23.30857
841.355	22.85513
841.748	23.14137
842.142	23.02171
842.536	22.68029
842.929	23.99357
843.323	23.34525
843.716	23.67774
844.109	23.95101
844.503	22.96608
844.896	23.09177
845.289	23.78205
845.682	23.01767
846.075	23.58516
846.468	23.14938
846.861	24.02024
847.254	24.18772
847.647	23.36062
848.04	24.00521
848.432	23.61269
848.825	23.26112
849.217	22.32851
849.61	23.89606
850.002	23.59913
850.395	24.064
850.787	23.50318
851.179	23.75986
851.572	23.68075
851.964	24.58724
852.356	23.74763
852.748	24.10164
853.14	23.96548
853.532	24.0307
853.924	23.62925
854.315	23.14614
854.707	24.00853
855.099	24.8741
855.491	23.64631
855.882	23.32264
856.274	23.61077
856.665	24.04081
857.056	23.89948
857.448	24.3378
857.839	24.49878
858.23	23.23872
858.621	24.43116
859.012	24.32431
859.403	23.26979
859.794	23.33906
860.185	24.00859
860.576	23.09913
860.967	23.96178
861.358	24.10695
861.748	23.46587
862.139	22.60758
862.529	23.39671
862.92	23.35367
863.31	24.28116
863.701	23.84628
864.091	22.99291
864.481	23.91525
864.872	23.77232
865.262	23.45734
865.652	23.59182
866.042	23.78703
866.432	22.85818
866.822	24.14949
867.211	23.95818
867.601	23.42794
867.991	23.97836
868.381	23.45509
868.77	22.52586
869.16	23.69148
869.549	23.55984
869.939	23.51581
870.328	23.82571
870.717	23.21301
871.106	23.68486
871.496	23.67122
871.885	23.17873
872.274	23.32392
872.663	23.4739
873.052	23.94996
873.441	23.60673
873.829	23.14624
874.218	23.34026
874.607	22.9749
874.996	23.06285
875.384	23.56787
875.773	22.63276
876.161	22.4849
876.549	22.66542
876.938	22.65527
877.326	22.01068
877.714	22.81013
878.102	22.55389
878.491	22.62786
878.879	22.86161
879.267	22.53008
879.655	22.33358
880.042	23.16802
880.43	23.19639
880.818	22.94824
881.206	23.33695
881.593	23.49738
881.981	23.20593
882.368	23.59334
882.756	23.7084
883.143	23.34029
883.53	23.07323
883.918	23.53295
884.305	22.70356
884.692	23.01319
885.079	23.27853
885.466	22.83156
885.853	23.42778
886.24	22.87117
886.627	22.88461
887.014	22.67644
887.4	22.84122
887.787	22.58234
888.174	22.74356
888.56	23.77932
888.947	23.40742
889.333	23.34018
889.719	23.27796
890.106	22.85438
890.492	23.19097
890.878	23.24658
891.264	23.16633
891.65	22.45233
892.036	22.09087
892.422	23.08711
892.808	22.92545
893.194	22.72956
893.58	22.80888
893.965	22.95095
894.351	22.29404
894.736	22.90609
895.122	23.03953
895.507	22.99015
895.893	23.04862
896.278	23.2173
896.663	23.36432
897.049	23.22689
897.434	23.56772
897.819	23.18127
898.204	22.99786
898.589	22.62654
898.974	23.15515
899.359	22.23617
899.743	22.64051
900.128	22.89887
900.513	22.40132
900.897	23.00159
901.282	22.60929
901.667	23.20659
902.051	22.84558
902.435	22.95217
902.82	22.54202
903.204	22.18183
903.588	22.17352
903.972	22.18233
904.356	22.1246
904.74	23.05259
905.124	23.34506
905.508	22.68559
905.892	22.90531
906.276	23.16004
906.659	22.9621
907.043	22.61121
907.427	22.80617
907.81	23.23701
908.194	23.05953
908.577	23.65839
908.96	22.92314
909.344	22.67921
909.727	21.95849
910.11	23.15655
910.493	23.73968
910.876	22.79501
911.259	22.7436
911.642	22.90866
912.025	22.70692
912.408	22.32941
912.79	22.02654
913.173	22.21572
913.556	22.5484
913.938	22.86598
914.321	22.47203
914.703	21.88796
915.086	21.985
915.468	22.5138
915.85	22.32067
916.232	21.60297
916.614	22.52477
916.996	22.89291
917.378	22.25646
917.76	21.98841
918.142	22.41995
918.524	22.3766
918.906	22.26531
919.288	22.07756
919.669	22.15322
920.051	22.21102
920.432	22.22196
920.814	22.49646
921.195	22.19653
921.577	22.0039
921.958	22.73179
922.339	23.3548
922.72	22.81513
923.101	22.63653
923.482	23.43964
923.863	22.72045
924.244	21.7608
924.625	22.16677
925.006	21.42025
925.387	21.93375
925.767	22.94214
926.148	22.30591
926.528	23.02266
926.909	22.53049
927.289	22.60246
927.67	22.99647
928.05	22.75916
928.43	21.74377
928.81	22.58667
929.191	22.33021
929.571	22.8055
929.951	22.42758
930.331	22.57619
930.71	21.75723
931.09	21.80145
931.47	22.37715
931.85	22.24235
932.229	21.38178
932.609	22.37139
932.988	23.02932
933.368	22.62084
933.747	22.41925
934.127	22.33374
934.506	22.27406
934.885	21.52758
935.264	21.20368
935.643	22.135
936.022	21.54398
936.401	21.61548
936.78	21.70566
937.159	21.05892
937.538	21.18886
937.916	21.8057
938.295	22.07403
938.674	21.58442
939.052	22.10013
939.431	21.52399
939.809	21.35522
940.187	21.13442
940.566	22.20522
940.944	21.14043
941.322	22.03972
941.7	22.00876
942.078	22.0467
942.456	22.48393
942.834	21.11211
943.212	21.63315
943.59	22.94954
943.968	21.53624
944.345	22.31229
944.723	20.21821
945.1	21.68976
945.478	20.11669
945.855	20.61152
946.233	21.29994
946.61	22.40275
946.987	22.5692
947.365	22.20304
947.742	21.51501
948.119	21.74094
948.496	20.46723
948.873	21.23371
949.25	21.016
949.626	21.57715
950.003	21.52963
950.38	21.01805
950.756	22.26065
951.133	21.4068
951.51	21.92864
951.886	20.32683
952.262	21.13555
952.639	20.82635
953.015	21.60368
953.391	20.50817
953.767	21.21718
954.143	21.5329
954.519	22.27498
954.895	22.36738
955.271	21.13345
955.647	21.82545
956.023	20.46238
956.399	20.96257
956.774	22.13359
957.15	20.00408
957.525	21.84075
957.901	20.40197
958.276	19.71015
958.652	21.24709
959.027	21.24952
959.402	19.79
959.777	21.57003
960.152	21.08397
960.527	22.12634
960.902	18.43464
961.277	20.85593
961.652	21.38504
962.027	21.63546
962.402	21.16129
962.776	22.27195
963.151	20.77035
963.525	20.57452
963.9	21.19517
964.274	20.66948
964.649	22.51103
965.023	19.60343
965.397	20.79038
965.771	21.10939
966.146	20.24853
966.52	20.59246
966.894	19.71003
967.268	19.64873
967.641	17.46969
968.015	20.69386
968.389	21.50033
968.763	20.16155
969.136	18.9851
969.51	19.61995
969.883	20.84125
970.257	22.00632
970.63	22.12588
971.003	20.89538
971.377	21.85012
971.75	20.67843
972.123	20.99722
972.496	21.02252
972.869	21.58304
973.242	22.31931
973.615	18.88463
973.988	22.22408
974.36	20.26744
974.733	20.54636
975.106	22.03211
975.478	19.79807
975.851	19.90553
976.223	21.85673
976.596	19.77885
976.968	21.20903
977.34	20.79325
977.712	20.84188
978.085	19.27534
978.457	19.0877
978.829	18.99
979.201	19.29253
979.573	19.69562
979.944	18.78889
980.316	19.99151
980.688	19.94113
981.059	21.4287
981.431	21.59463
981.803	19.28084
982.174	20.53656
982.545	20.58892
982.917	19.61198
983.288	22.66015
983.659	19.91774
984.03	21.41227
984.401	19.748
984.772	18.02779
985.143	19.49408
985.514	19.61101
985.885	18.92466
986.256	20.72705
986.627	19.92954
986.997	17.41769
987.368	20.13794
987.738	20.24069
988.109	18.71291
988.479	17.46114
988.85	18.79123
989.22	19.83957
989.59	19.13329
989.96	20.18815
990.33	18.67762
990.7	19.08298
991.07	19.40224
991.44	18.07142
991.81	17.67634
992.18	18.82961
992.549	18.48932
992.919	18.23782
993.289	18.2736
993.658	20.17302
994.028	19.44038
994.397	19.40869
994.766	18.70829
995.136	17.62719
995.505	18.41146
995.874	19.70952
996.243	20.05594
996.612	18.78111
996.981	17.01161
997.35	22.87921
997.719	20.50806
998.088	17.78096
998.456	17.06962
998.825	19.98347
999.194	19.05327
999.562	24.1435
999.931	19.00574
1000.299	22.23329
1000.667	17.14346
1001.036	22.9316
1001.404	20.29509
1001.772	18.82787
1002.14	18.45862
1002.508	18.73362
1002.876	19.66012
1003.244	20.01832
1003.612	22.27113
1003.98	25.32377
1004.347	24.06838
1004.715	18.18488
1005.083	17.70443
1005.45	19.87523
1005.818	19.09008
1006.185	20.40738
1006.552	21.06329
1006.92	17.27637
1007.287	16.92536
1007.654	19.04731
1008.021	17.12355
1008.388	21.29029
1008.755	19.96572
1009.122	21.65185
1009.489	20.11017
1009.856	23.40387
1010.222	19.54242
1010.589	18.67624
1010.956	21.74881
1011.322	20.18021
1011.689	18.99441
1012.055	19.87376
1012.421	15.56452
1012.788	19.34449
1013.154	19.32729
1013.52	19.62095
1013.886	18.41193
1014.252	18.71117
1014.618	22.44998
1014.984	22.56871
1015.35	16.91348
1015.716	21.78165
1016.081	20.92721
1016.447	20.80262
1016.813	20.55463
1017.178	16.95063
1017.544	18.81369
1017.909	23.33493
1018.274	21.5733
1018.64	22.62829
1019.005	19.90328
1019.37	21.40959
1019.735	22.08068
1020.1	23.6773
1020.465	23.03035
1020.83	19.83531
1021.195	24.80417
1021.56	19.25683
1021.924	23.04208
1022.289	26.26675
1022.654	20.42418
1023.018	14.22273
1023.383	17.89755
1023.747	15.56543
1024.111	13.84628
1024.476	25.02181
1024.84	18.1491
1025.204	24.22889
1025.568	19.45919
1025.932	32.03521
1026.296	23.76373
1026.66	28.12378
1027.024	23.98983
1027.387	21.90452
1027.751	22.53767
1028.115	24.92909
1028.478	19.28692
1028.842	17.78908
1029.205	27.3103
1029.569	21.73392
1029.932	23.67458
1030.295	25.64077
1030.659	31.60027
1031.022	22.83654
1031.385	33.84239
1031.748	29.17767
1032.111	18.785
1032.474	27.38008
1032.836	22.04162
1033.199	20.63377
1033.562	29.22172
1033.924	26.78157
1034.287	23.65659
1034.65	21.43782
1035.012	20.50909
1035.374	26.8652
1035.737	26.68882
1036.099	26.95688
1036.461	20.44184
1036.823	18.33712
1037.185	35.89864
1037.547	34.3001
1037.909	18.02391
1038.271	22.41712
1038.633	28.2404
1038.995	7.32235
1039.356	26.95107
1039.718	12.31295
1040.08	43.22019
1040.441	15.48054
1040.803	22.00583
1041.164	14.54566
1041.525	21.74691
1041.886	20.2973
1042.248	34.78402
1042.609	35.82961
1042.97	38.23529
1043.331	25.28699
1043.692	15.31897
1044.053	25.2919
1044.413	22.58326
1044.774	23.18465
1045.135	29.70859
1045.495	39.53507
1045.856	31.08341
1046.216	25.56156
1046.577	25.40757
1046.937	20.80575
1047.298	29.03905
