Data from 1016water_Reflection__8__20-40-17-716.txt Node

Date: Thu Oct 16 20:40:17 AST 2025
User: lin
Spectrometer: SR600411
Trigger mode: 0
Integration Time (sec): 5.601500E-2
Scans to average: 5
Nonlinearity correction enabled: true
Boxcar width: 0
Storing dark spectrum: false
XAxis mode: Wavelengths
Number of Pixels in Spectrum: 2048
>>>>>Begin Spectral Data<<<<<
187.982	51.87564
188.456	55.12268
188.93	53.69041
189.403	63.93215
189.877	59.44709
190.351	44.53028
190.825	59.17816
191.298	57.18788
191.772	53.07442
192.246	75.92488
192.719	43.23244
193.193	51.50535
193.666	62.96786
194.139	57.49031
194.613	57.33976
195.086	66.28435
195.559	63.5252
196.033	66.65255
196.506	67.53692
196.979	55.36195
197.452	58.33996
197.925	57.05414
198.398	62.07946
198.871	56.24841
199.344	60.24162
199.816	51.44103
200.289	60.77824
200.762	52.05416
201.235	60.7422
201.707	71.21119
202.18	35.45732
202.652	55.08163
203.125	49.26852
203.597	45.02571
204.07	61.84163
204.542	62.91311
205.014	36.65838
205.486	70.42243
205.959	58.65062
206.431	43.52114
206.903	71.61566
207.375	57.68602
207.847	40.83827
208.319	63.88395
208.791	24.9948
209.263	12.6295
209.734	75.36821
210.206	52.93614
210.678	55.19387
211.15	67.2217
211.621	12.58965
212.093	58.10097
212.564	60.18006
213.036	28.69932
213.507	78.94424
213.979	62.0374
214.45	24.0347
214.921	64.28061
215.392	60.3551
215.864	52.77244
216.335	71.63639
216.806	19.50837
217.277	72.52388
217.748	46.81917
218.219	30.94882
218.69	49.66139
219.161	59.99572
219.631	28.06561
220.102	88.96269
220.573	47.9279
221.043	44.78696
221.514	17.52299
221.985	58.5811
222.455	25.37974
222.926	26.66259
223.396	37.49517
223.866	59.83025
224.337	44.11266
224.807	44.54007
225.277	106.17389
225.747	71.31801
226.217	47.8204
226.687	37.30722
227.157	70.23462
227.627	-17.2807
228.097	37.6014
228.567	49.50945
229.037	47.11025
229.507	69.80689
229.977	47.9279
230.446	33.02274
230.916	86.60457
231.386	26.96282
231.855	44.53199
232.325	55.82746
232.794	66.93684
233.263	57.68601
233.733	88.97391
234.202	29.99625
234.671	70.09906
235.14	66.66323
235.61	69.48657
236.079	13.3323
236.548	78.15798
237.017	45.75691
237.486	49.99406
237.955	24.04777
238.424	46.14936
238.892	74.99598
239.361	38.03918
239.83	57.37114
240.299	67.90466
240.767	27.90355
241.236	38.45666
241.704	61.05662
242.173	31.24659
242.641	68.60098
243.109	40.65499
243.578	94.02911
244.046	98.16475
244.514	74.15392
244.982	22.49585
245.451	95.77408
245.919	57.89106
246.387	85.55335
246.855	77.90404
247.323	62.1988
247.791	78.20249
248.258	36.62901
248.726	52.77422
249.194	46.42305
249.662	55.2206
250.129	29.81983
250.597	50.85632
251.064	64.70126
251.532	52.2662
251.999	64.90713
252.467	107.81357
252.934	49.99475
253.401	71.27279
253.869	59.25538
254.336	19.9973
254.803	56.11767
255.27	29.26492
255.737	47.05462
256.204	85.57438
256.671	49.45776
257.138	44.44092
257.605	83.01739
258.072	56.1475
258.539	64.07297
259.005	89.18777
259.472	29.06625
259.939	42.85238
260.405	64.70357
260.872	37.49628
261.338	53.32815
261.805	42.73592
262.271	59.01054
262.737	53.84103
263.203	78.34726
263.67	48.4488
264.136	86.20485
264.602	10.25499
265.068	65.11241
265.534	31.62845
266	60.19942
266.466	35.34905
266.932	74.41536
267.398	65.28382
267.864	66.40059
268.329	61.31577
268.795	41.17076
269.261	47.94159
269.726	108.33462
270.192	53.78137
270.657	31.02956
271.123	35.70919
271.588	80.43191
272.053	27.5335
272.519	54.32445
272.984	67.68949
273.449	94.99943
273.914	66.99562
274.379	53.53047
274.844	77.35481
275.309	37.35841
275.774	51.48015
276.239	48.7336
276.704	56.75135
277.169	55.94828
277.634	45.35606
278.098	31.30891
278.563	10.08978
279.028	43.52527
279.492	76.72003
279.957	65.90517
280.421	49.99693
280.886	73.2634
281.35	81.18506
281.814	32.14043
282.279	46.15064
282.743	65.21429
283.207	64.28062
283.671	63.10912
284.135	43.99389
284.599	54.36387
285.063	39.41815
285.527	39.23677
285.991	59.99572
286.455	64.70203
286.919	26.6626
287.382	77.77377
287.846	48.99505
288.31	46.90958
288.773	69.44141
289.237	70.2672
289.7	35.84422
290.164	68.26476
290.627	43.41735
291.09	37.61906
291.554	87.91017
292.017	71.7132
292.48	45.78912
292.943	78.09168
293.406	53.00795
293.869	72.41035
294.332	67.91995
294.795	25.92284
295.258	44.65515
295.721	62.13112
296.184	64.4041
296.646	70.50961
297.109	60.80731
297.572	30.94882
298.034	87.87739
298.497	65.54089
298.959	67.30088
299.422	129.4169
299.884	52.33116
300.346	34.47886
300.809	91.04369
301.271	38.7709
301.733	95.58767
302.195	66.26138
302.657	40.62041
303.119	37.87571
303.581	48.34715
304.043	21.94843
304.505	75.25415
304.967	80.84818
305.429	39.54588
305.891	81.24807
306.352	57.96768
306.814	51.38532
307.275	98.30489
307.737	37.92833
308.198	77.85812
308.66	57.13878
309.121	32.39128
309.583	70.66358
310.044	46.37341
310.505	37.73091
310.966	85.18316
311.428	46.42443
311.889	45.86619
312.35	56.51614
312.811	54.25722
313.272	52.93866
313.733	61.83855
314.193	12.88393
314.654	53.75886
315.115	92.13355
315.576	-2.46873
316.036	89.24554
316.497	67.08515
316.957	49.99455
317.418	84.44327
317.878	70.93539
318.339	54.42649
318.799	56.35828
319.259	106.45246
319.72	68.56844
320.18	52.67303
320.64	56.94094
321.1	54.54113
321.56	75.75397
322.02	64.41835
322.48	39.73989
322.94	43.67392
323.4	60.63385
323.86	74.99583
324.319	61.10772
324.779	65.62214
325.239	35.13012
325.698	88.31011
326.158	19.75054
326.617	101.5627
327.077	25.42151
327.536	79.99746
327.996	101.72434
328.455	63.52551
328.914	101.16299
329.373	67.99676
329.832	65.6207
330.292	63.76495
330.751	112.66046
331.21	62.62167
331.668	94.20215
332.127	64.099
332.586	8.33261
333.045	74.22312
333.504	58.64022
333.962	38.4591
334.421	130.88781
334.88	81.96543
335.338	57.00415
335.797	61.32981
336.255	24.32162
336.714	37.17587
337.172	76.46634
337.63	9.80303
338.088	83.09662
338.547	48.18866
339.005	30.11702
339.463	50.44495
339.921	64.44036
340.379	55.55159
340.837	59.77822
341.295	53.22275
341.753	43.14359
342.21	32.09526
342.668	68.28916
343.126	27.2697
343.584	31.52678
344.041	73.78246
344.499	33.94011
344.956	78.74735
345.414	59.13533
345.871	27.44696
346.328	68.35105
346.786	77.11452
347.243	73.1921
347.7	89.551
348.157	44.43916
348.614	28.74675
349.071	60.27699
349.528	99.07388
349.985	54.30464
350.442	51.84651
350.899	22.82287
351.356	109.64029
351.812	29.72513
352.269	77.97794
352.726	64.19384
353.182	67.89773
353.639	90.08813
354.095	55.16814
354.552	49.05135
355.008	60.64997
355.465	57.42085
355.921	35.70855
356.377	62.13112
356.833	45.97273
357.289	62.60336
357.745	85.05528
358.201	52.4753
358.657	64.70049
359.113	77.31622
359.569	39.23304
360.025	35.05798
360.481	32.11088
360.937	68.97603
361.392	65.87478
361.848	75.14168
362.303	63.35275
362.759	64.85652
363.214	57.28833
363.67	46.18014
364.125	61.52628
364.581	59.04296
365.036	52.59735
365.491	56.92588
365.946	49.35534
366.401	57.49772
366.856	58.24224
367.311	55.5866
367.766	58.18963
368.221	63.2266
368.676	50.44387
369.131	54.36363
369.586	54.3736
370.041	55.96567
370.495	59.24095
370.95	50.86529
371.404	53.48627
371.859	51.52934
372.313	57.85463
372.768	53.38262
373.222	56.92284
373.676	55.32253
374.131	53.07176
374.585	54.85878
375.039	53.2925
375.493	53.91827
375.947	54.79422
376.401	54.29829
376.855	53.94164
377.309	56.1207
377.763	55.72081
378.217	54.84006
378.67	53.97829
379.124	57.834
379.578	56.30557
380.031	57.52619
380.485	54.05098
380.938	55.85983
381.392	54.41103
381.845	55.5249
382.299	51.59582
382.752	54.35648
383.205	54.18747
383.658	53.68496
384.111	54.77676
384.564	55.03724
385.018	54.93192
385.471	54.99078
385.923	55.26405
386.376	55.20267
386.829	55.10275
387.282	56.63662
387.735	55.7749
388.187	56.47017
388.64	55.27823
389.093	56.60814
389.545	55.08175
389.998	55.37533
390.45	56.55937
390.902	55.57868
391.355	55.79294
391.807	56.16653
392.259	55.16745
392.711	56.09348
393.163	55.60271
393.615	56.8103
394.068	57.38885
394.519	55.84914
394.971	55.95223
395.423	55.4806
395.875	56.42694
396.327	56.22517
396.779	56.10357
397.23	56.5814
397.682	55.8555
398.133	55.94018
398.585	55.49334
399.036	55.06964
399.488	55.30402
399.939	55.97668
400.39	55.65605
400.842	55.14248
401.293	54.55741
401.744	54.57583
402.195	55.36145
402.646	53.769
403.097	54.35351
403.548	53.93834
403.999	53.86396
404.45	53.85648
404.9	53.45898
405.351	53.68068
405.802	54.3348
406.253	53.22105
406.703	53.66189
407.154	52.7801
407.604	53.54543
408.055	53.38478
408.505	52.40773
408.955	52.46681
409.406	52.54346
409.856	52.67119
410.306	52.20497
410.756	52.4408
411.206	51.75273
411.656	51.67767
412.106	51.35766
412.556	51.46031
413.006	51.11704
413.456	50.6707
413.905	50.49762
414.355	50.54253
414.805	50.85115
415.254	50.30171
415.704	50.61314
416.153	49.65275
416.603	49.80355
417.052	50.27253
417.502	49.80597
417.951	50.37431
418.4	49.68625
418.849	48.90577
419.298	49.2858
419.748	48.49364
420.197	48.87243
420.646	47.85814
421.094	48.20717
421.543	47.81786
421.992	47.99616
422.441	47.75205
422.89	47.9881
423.338	47.66815
423.787	47.00693
424.236	47.00819
424.684	47.47791
425.133	46.99178
425.581	46.54535
426.029	46.79726
426.478	46.54836
426.926	46.72795
427.374	46.31131
427.822	46.79674
428.27	46.17285
428.718	46.3179
429.166	46.24506
429.614	46.23267
430.062	46.19771
430.51	46.08689
430.958	46.53821
431.406	45.2563
431.853	46.10006
432.301	45.93051
432.749	45.99174
433.196	45.04028
433.644	45.18802
434.091	45.03607
434.538	45.48864
434.986	44.89696
435.433	45.3638
435.88	44.93895
436.327	45.02118
436.775	45.20268
437.222	44.69468
437.669	45.06403
438.116	44.88348
438.563	44.51423
439.009	44.9593
439.456	44.93905
439.903	44.95451
440.35	45.48557
440.796	44.76837
441.243	44.95398
441.689	44.8464
442.136	44.82634
442.582	44.63869
443.029	45.23945
443.475	44.86177
443.921	44.62784
444.368	44.68961
444.814	44.56701
445.26	44.51304
445.706	44.90947
446.152	45.20063
446.598	44.78686
447.044	44.91517
447.49	44.86238
447.936	44.41222
448.381	44.51122
448.827	44.99241
449.273	45.24311
449.718	44.91897
450.164	45.24249
450.61	44.85413
451.055	44.96585
451.5	44.81157
451.946	45.21201
452.391	45.21987
452.836	45.40737
453.282	45.39636
453.727	45.16385
454.172	45.24528
454.617	45.21225
455.062	45.47366
455.507	45.90601
455.952	45.50791
456.396	45.6084
456.841	45.69338
457.286	45.84437
457.731	45.97065
458.175	46.15914
458.62	46.222
459.064	45.98595
459.509	46.46029
459.953	46.20234
460.398	46.4548
460.842	46.92629
461.286	46.72756
461.73	46.74
462.174	47.02445
462.619	47.0611
463.063	47.64068
463.507	47.538
463.951	47.88126
464.394	47.40185
464.838	47.65331
465.282	47.91381
465.726	48.10321
466.17	48.06334
466.613	47.9611
467.057	48.33051
467.5	48.89451
467.944	48.83004
468.387	49.52719
468.831	48.90908
469.274	49.06605
469.717	49.94948
470.16	49.95184
470.603	50.43217
471.047	50.68465
471.49	50.65901
471.933	50.82433
472.376	50.67873
472.818	51.45409
473.261	51.40203
473.704	51.18892
474.147	51.78275
474.59	51.65788
475.032	51.77465
475.475	52.04753
475.917	52.4947
476.36	51.85868
476.802	52.44454
477.245	52.60761
477.687	52.71621
478.129	52.6598
478.571	53.48354
479.013	53.72434
479.456	53.6987
479.898	53.92015
480.34	54.16803
480.782	54.12924
481.224	54.39342
481.665	53.82363
482.107	54.64619
482.549	54.46794
482.991	54.22621
483.432	54.73031
483.874	54.97742
484.315	54.58014
484.757	55.05422
485.198	55.06749
485.64	55.37886
486.081	55.27185
486.522	55.45844
486.963	55.70477
487.405	55.40532
487.846	55.75541
488.287	55.99484
488.728	55.93912
489.169	56.24596
489.61	56.34506
490.05	56.32049
490.491	56.75266
490.932	56.25142
491.373	56.26838
491.813	56.83843
492.254	56.64664
492.694	56.48716
493.135	56.63807
493.575	56.40284
494.016	56.12855
494.456	56.48168
494.896	56.23414
495.336	56.78403
495.777	57.3691
496.217	56.87871
496.657	56.94142
497.097	57.37283
497.537	57.01662
497.977	56.84791
498.416	57.35188
498.856	58.20491
499.296	57.8663
499.736	57.6808
500.175	57.74998
500.615	57.47995
501.054	57.72116
501.494	57.77211
501.933	58.06118
502.373	57.89754
502.812	58.41496
503.251	58.47767
503.69	58.67186
504.129	58.82392
504.569	59.40282
505.008	59.40051
505.447	58.88381
505.886	59.38211
506.324	59.7101
506.763	59.63527
507.202	59.6055
507.641	59.83967
508.079	60.40058
508.518	60.8533
508.957	61.1574
509.395	60.84015
509.834	61.7405
510.272	61.12809
510.71	61.68969
511.149	61.90791
511.587	62.04066
512.025	62.09454
512.463	62.11798
512.901	62.20958
513.339	62.33567
513.777	64.25994
514.215	63.47638
514.653	62.61681
515.091	63.48947
515.529	63.39269
515.966	63.40406
516.404	63.93297
516.842	63.81161
517.279	64.23075
517.717	64.01188
518.154	64.44007
518.592	64.58623
519.029	65.12746
519.466	64.9091
519.904	65.2049
520.341	65.46906
520.778	65.57064
521.215	65.89448
521.652	65.84934
522.089	65.78534
522.526	66.61777
522.963	66.477
523.399	66.24797
523.836	66.98102
524.273	67.26618
524.71	67.42622
525.146	67.58585
525.583	67.37825
526.019	67.74731
526.456	67.82544
526.892	68.10942
527.328	68.59665
527.765	68.29024
528.201	68.90665
528.637	69.13784
529.073	69.48558
529.509	69.58693
529.945	69.28733
530.381	69.54316
530.817	69.29895
531.253	69.49608
531.689	69.60121
532.124	70.31184
532.56	70.55462
532.996	70.7437
533.431	71.02377
533.867	71.01197
534.302	71.293
534.738	71.41714
535.173	71.25287
535.608	71.54023
536.044	72.27207
536.479	71.50544
536.914	71.91366
537.349	72.10623
537.784	71.76352
538.219	72.0486
538.654	71.89716
539.089	71.98158
539.524	72.02054
539.959	71.37753
540.393	72.0531
540.828	72.52382
541.263	72.75464
541.697	72.07611
542.132	72.58565
542.566	72.11775
543.001	72.58492
543.435	72.62634
543.869	72.69513
544.303	72.93095
544.738	72.85374
545.172	72.63728
545.606	72.46059
546.04	72.44299
546.474	72.33015
546.908	72.86728
547.342	72.54206
547.775	73.07129
548.209	71.80808
548.643	72.80043
549.077	72.96703
549.51	72.50078
549.944	71.84777
550.377	71.72123
550.811	72.06144
551.244	71.80505
551.677	71.08035
552.111	71.49443
552.544	70.81199
552.977	70.45217
553.41	70.80536
553.843	70.56248
554.276	70.33396
554.709	69.57957
555.142	69.95938
555.575	69.72011
556.008	69.69053
556.44	69.06654
556.873	69.086
557.306	68.88143
557.738	68.96799
558.171	68.5957
558.603	67.92483
559.036	68.37904
559.468	67.25472
559.9	67.54048
560.333	67.34848
560.765	66.91853
561.197	66.6306
561.629	66.40354
562.061	66.26187
562.493	65.90286
562.925	66.20099
563.357	65.72616
563.789	66.03951
564.22	65.57362
564.652	65.28455
565.084	65.21541
565.515	64.70596
565.947	64.49637
566.378	64.77243
566.81	64.78536
567.241	63.89955
567.672	63.97008
568.104	64.1174
568.535	63.77655
568.966	63.27416
569.397	62.76659
569.828	62.79207
570.259	62.29152
570.69	61.87852
571.121	61.74221
571.552	61.37892
571.983	61.21503
572.414	60.88957
572.844	60.66678
573.275	60.7013
573.705	60.6891
574.136	60.21154
574.566	60.42294
574.997	60.10459
575.427	60.0679
575.857	60.33225
576.288	59.29911
576.718	59.48328
577.148	59.20646
577.578	58.92468
578.008	58.61314
578.438	58.31495
578.868	58.13778
579.298	57.59113
579.728	58.0182
580.157	57.65605
580.587	57.27753
581.017	56.71801
581.446	56.37844
581.876	56.33146
582.305	55.91986
582.735	55.99037
583.164	55.84188
583.593	55.2715
584.023	55.53145
584.452	55.2834
584.881	55.26168
585.31	55.37554
585.739	55.0046
586.168	54.77871
586.597	54.66606
587.026	54.39274
587.455	53.87067
587.884	53.76835
588.312	53.91615
588.741	52.97943
589.17	53.21548
589.598	53.11529
590.027	52.82968
590.455	52.46948
590.884	52.10772
591.312	51.96436
591.74	51.75481
592.168	51.76838
592.597	51.78058
593.025	51.54978
593.453	51.48139
593.881	51.39677
594.309	51.14635
594.737	51.01427
595.165	50.54836
595.592	50.74771
596.02	50.58678
596.448	50.2723
596.875	50.20319
597.303	50.27541
597.73	49.84233
598.158	50.24716
598.585	49.86399
599.013	49.52007
599.44	49.66636
599.867	48.90121
600.294	49.02938
600.722	48.51213
601.149	48.60538
601.576	48.75754
602.003	48.75457
602.43	48.14308
602.856	48.41708
603.283	47.9546
603.71	48.21123
604.137	48.28236
604.563	48.62266
604.99	48.30636
605.416	48.18576
605.843	47.93475
606.269	47.81237
606.696	47.62184
607.122	47.92211
607.548	47.80227
607.975	47.31783
608.401	47.29034
608.827	47.27598
609.253	47.45837
609.679	47.02049
610.105	46.80769
610.531	46.73215
610.956	47.14761
611.382	47.002
611.808	46.86544
612.234	46.56952
612.659	46.74076
613.085	46.69735
613.51	46.30034
613.936	46.73105
614.361	46.6426
614.786	46.7224
615.212	46.71191
615.637	46.46017
616.062	46.0629
616.487	46.44226
616.912	46.61155
617.337	46.21751
617.762	46.19978
618.187	46.32074
618.612	46.67486
619.037	46.20701
619.461	46.11209
619.886	46.23506
620.311	46.27279
620.735	46.45289
621.16	46.34742
621.584	46.84563
622.008	46.34688
622.433	46.19641
622.857	45.45632
623.281	45.67003
623.705	45.85303
624.13	45.98542
624.554	45.96814
624.978	45.88476
625.402	45.75876
625.826	45.84393
626.249	45.80233
626.673	45.7313
627.097	45.71124
627.521	45.76181
627.944	46.06947
628.368	45.90573
628.791	45.90155
629.215	46.13852
629.638	45.85956
630.061	46.15412
630.485	46.2839
630.908	46.20882
631.331	46.11141
631.754	46.89182
632.177	47.15236
632.6	46.72223
633.023	47.47883
633.446	47.306
633.869	47.30941
634.292	47.53626
634.715	47.49853
635.137	47.69142
635.56	47.79166
635.982	48.14033
636.405	47.75275
636.827	48.05806
637.25	48.15705
637.672	47.55637
638.094	48.15984
638.517	48.13138
638.939	48.22463
639.361	48.39512
639.783	48.90259
640.205	48.97117
640.627	49.10634
641.049	48.79545
641.471	48.80801
641.893	49.10998
642.314	49.33442
642.736	49.175
643.158	49.47044
643.579	49.68285
644.001	49.71691
644.422	50.2365
644.844	50.06172
645.265	49.94346
645.686	50.10457
646.107	50.42383
646.529	50.27401
646.95	51.03458
647.371	50.84859
647.792	51.2048
648.213	51.51389
648.634	51.4096
649.055	51.95449
649.475	51.8059
649.896	51.60435
650.317	51.96023
650.737	52.28019
651.158	52.39156
651.578	52.49434
651.999	53.01557
652.419	52.50126
652.84	53.08412
653.26	52.98769
653.68	52.96619
654.1	53.18195
654.521	53.11759
654.941	53.61591
655.361	53.7092
655.781	54.2849
656.2	54.44153
656.62	54.49772
657.04	54.67502
657.46	54.60212
657.879	54.56702
658.299	54.75854
658.719	54.66237
659.138	54.41672
659.558	54.83933
659.977	55.46193
660.396	55.55491
660.816	55.93726
661.235	55.74824
661.654	55.71729
662.073	55.29408
662.492	55.68271
662.911	55.87975
663.33	56.21535
663.749	56.37388
664.168	57.2505
664.587	57.50805
665.006	57.59315
665.424	57.04316
665.843	57.7851
666.261	57.75648
666.68	58.01883
667.098	57.51863
667.517	57.7923
667.935	57.64738
668.353	57.80465
668.772	57.56267
669.19	57.88515
669.608	57.4948
670.026	57.46189
670.444	57.56427
670.862	57.88423
671.28	58.05106
671.698	57.69062
672.115	57.65205
672.533	57.22361
672.951	58.05335
673.368	58.07769
673.786	57.64896
674.203	57.31889
674.621	57.87025
675.038	57.28818
675.456	57.76415
675.873	57.51331
676.29	57.73296
676.707	57.39589
677.124	57.69741
677.541	57.69706
677.958	57.83067
678.375	57.91891
678.792	57.1386
679.209	57.54925
679.626	57.3841
680.043	57.11766
680.459	56.72122
680.876	56.73001
681.292	56.34713
681.709	56.40385
682.125	56.17347
682.542	56.24919
682.958	56.09129
683.374	56.06306
683.79	56.04623
684.207	55.85232
684.623	55.4593
685.039	55.57082
685.455	55.24447
685.871	55.20632
686.286	55.7186
686.702	54.81276
687.118	55.01842
687.534	54.59381
687.949	54.93552
688.365	54.49684
688.781	54.37497
689.196	54.26198
689.611	54.34059
690.027	53.49453
690.442	53.15029
690.857	52.99696
691.273	53.27105
691.688	52.98416
692.103	52.38398
692.518	52.39505
692.933	52.72454
693.348	52.61869
693.763	51.94012
694.177	51.49353
694.592	51.86902
695.007	50.97709
695.421	50.94554
695.836	50.80241
696.25	51.07011
696.665	50.87647
697.079	50.2052
697.494	50.39274
697.908	50.22385
698.322	50.30921
698.736	49.24055
699.151	49.32135
699.565	48.96946
699.979	49.11591
700.393	48.46631
700.806	48.4565
701.22	48.00105
701.634	48.81714
702.048	47.74259
702.461	47.64022
702.875	46.88555
703.289	46.81988
703.702	46.90464
704.116	46.29273
704.529	45.57313
704.942	45.88333
705.356	45.63368
705.769	45.25396
706.182	45.4357
706.595	44.86327
707.008	44.9007
707.421	44.3232
707.834	44.20027
708.247	44.32995
708.66	43.38736
709.072	43.55327
709.485	43.08775
709.898	43.22639
710.31	42.78342
710.723	42.72333
711.135	42.35254
711.548	42.18866
711.96	41.73398
712.373	41.48651
712.785	40.8803
713.197	41.16284
713.609	40.64993
714.021	40.17446
714.433	39.67819
714.845	39.65359
715.257	39.37778
715.669	38.95998
716.081	38.70365
716.493	38.57849
716.904	38.28296
717.316	38.44415
717.727	38.14282
718.139	37.85684
718.55	37.85491
718.962	37.64918
719.373	37.34675
719.784	36.769
720.196	36.36445
720.607	36.30396
721.018	35.98099
721.429	35.75526
721.84	35.60294
722.251	35.63811
722.662	35.4691
723.073	35.32889
723.483	34.85038
723.894	34.61113
724.305	34.30227
724.715	34.08767
725.126	34.1744
725.536	33.93658
725.947	33.69964
726.357	33.19042
726.768	33.4159
727.178	32.88149
727.588	32.5733
727.998	32.53712
728.408	32.2791
728.818	32.14505
729.228	32.05613
729.638	32.19294
730.048	31.8811
730.458	31.57556
730.868	31.28586
731.277	31.36469
731.687	30.574
732.097	30.88205
732.506	30.58236
732.916	30.34236
733.325	30.27547
733.734	30.34925
734.144	29.56278
734.553	29.7193
734.962	29.47404
735.371	29.95722
735.78	29.21371
736.189	29.31657
736.598	28.99546
737.007	28.81792
737.416	27.97841
737.825	28.45221
738.233	28.5289
738.642	28.15045
739.051	27.71939
739.459	27.83743
739.868	27.71381
740.276	27.56601
740.684	27.11555
741.093	27.25495
741.501	27.07375
741.909	26.52057
742.317	26.7481
742.725	26.50145
743.133	26.46698
743.541	25.99778
743.949	26.69011
744.357	25.92751
744.765	26.38161
745.173	26.14381
745.58	26.19934
745.988	25.72046
746.396	25.95885
746.803	25.70984
747.211	25.62396
747.618	25.76944
748.025	25.27716
748.433	25.46883
748.84	25.20321
749.247	25.57347
749.654	24.7295
750.061	25.5084
750.468	24.56364
750.875	25.10907
751.282	24.41214
751.689	24.65702
752.096	24.45409
752.502	24.38723
752.909	23.99666
753.316	23.89388
753.722	24.06623
754.129	24.08744
754.535	24.15714
754.941	23.65916
755.348	23.93402
755.754	23.49331
756.16	24.11895
756.566	23.35482
756.972	23.7594
757.378	23.58789
757.784	23.12135
758.19	23.10702
758.596	23.06902
759.002	23.79235
759.408	23.26182
759.813	23.81744
760.219	23.25339
760.624	23.35175
761.03	23.11113
761.435	23.14448
761.841	22.627
762.246	22.28014
762.651	23.18634
763.057	22.64254
763.462	23.40878
763.867	23.22849
764.272	23.49604
764.677	23.50107
765.082	23.27134
765.487	23.26834
765.892	22.7524
766.296	23.09282
766.701	22.36289
767.106	22.97431
767.51	22.23872
767.915	22.59288
768.319	22.55174
768.724	22.39435
769.128	22.4165
769.532	22.15454
769.936	22.13451
770.341	21.93066
770.745	22.44187
771.149	22.34329
771.553	22.38196
771.957	22.19705
772.361	22.02557
772.764	22.52099
773.168	21.55245
773.572	22.54802
773.976	21.76321
774.379	22.23306
774.783	22.13156
775.186	21.25996
775.59	22.23378
775.993	21.78288
776.396	21.93807
776.8	21.73067
777.203	21.83572
777.606	21.96685
778.009	21.47865
778.412	22.13257
778.815	21.83784
779.218	22.09943
779.621	21.90688
780.023	21.80223
780.426	21.92875
780.829	22.19245
781.231	22.17097
781.634	21.70756
782.036	22.05889
782.439	21.88767
782.841	21.87994
783.244	22.17768
783.646	21.40989
784.048	22.13711
784.45	21.4386
784.852	21.87895
785.254	21.77004
785.656	21.66109
786.058	22.14954
786.46	21.63784
786.862	21.49044
787.264	21.70408
787.665	21.55199
788.067	22.03371
788.468	21.50798
788.87	21.7838
789.271	21.592
789.673	21.66512
790.074	21.97042
790.475	21.24391
790.877	21.86932
791.278	21.4611
791.679	21.92462
792.08	22.03629
792.481	21.70081
792.882	22.15415
793.283	21.68885
793.683	21.87037
794.084	21.84367
794.485	21.47146
794.886	21.99056
795.286	21.08323
795.687	21.73284
796.087	21.3913
796.487	21.95393
796.888	21.79034
797.288	20.96825
797.688	21.5404
798.088	21.69568
798.489	21.45906
798.889	21.70407
799.289	21.43712
799.689	22.1651
800.088	21.85338
800.488	21.95437
800.888	22.00615
801.288	21.64303
801.687	22.31714
802.087	21.39217
802.486	21.28382
802.886	21.68418
803.285	21.6283
803.685	21.94129
804.084	21.46767
804.483	21.73013
804.882	21.68379
805.281	21.35447
805.68	21.73541
806.079	21.57378
806.478	21.85184
806.877	21.48699
807.276	21.75606
807.675	22.33291
808.074	21.80689
808.472	21.58631
808.871	21.88664
809.269	21.78081
809.668	22.12496
810.066	22.28448
810.465	21.29907
810.863	22.15629
811.261	21.9597
811.659	21.51009
812.057	21.98746
812.455	21.71565
812.853	21.65438
813.251	21.85008
813.649	22.22803
814.047	22.13841
814.445	21.42166
814.843	21.61126
815.24	22.03579
815.638	21.3434
816.035	22.10034
816.433	21.31304
816.83	21.52891
817.228	22.05319
817.625	21.45451
818.022	21.58469
818.419	21.45787
818.816	21.57397
819.213	22.11545
819.61	21.56134
820.007	21.83751
820.404	22.06263
820.801	21.72874
821.198	22.35041
821.595	22.17254
821.991	22.06436
822.388	22.87308
822.784	22.74952
823.181	23.07047
823.577	23.51312
823.974	23.21621
824.37	23.4245
824.766	23.18415
825.162	22.54766
825.558	22.97365
825.954	22.22427
826.35	22.59831
826.746	22.98623
827.142	22.4286
827.538	22.97779
827.934	23.15858
828.33	22.85011
828.725	23.11809
829.121	22.91167
829.516	22.45112
829.912	22.84168
830.307	22.35191
830.703	22.79341
831.098	22.1212
831.493	22.09775
831.888	22.21333
832.283	21.8826
832.678	21.69912
833.073	22.59715
833.468	22.30944
833.863	22.44959
834.258	22.89501
834.653	22.89289
835.048	22.5585
835.442	23.43271
835.837	22.60449
836.231	22.94426
836.626	23.3652
837.02	22.91581
837.415	23.03532
837.809	23.04185
838.203	22.6972
838.597	22.80771
838.991	22.00929
839.385	22.33729
839.779	22.73359
840.173	22.74706
840.567	22.71132
840.961	23.15203
841.355	22.81699
841.748	23.20344
842.142	23.25338
842.536	23.22105
842.929	23.0698
843.323	24.04319
843.716	23.0198
844.109	23.50451
844.503	23.13956
844.896	23.91195
845.289	23.67636
845.682	23.76371
846.075	23.70905
846.468	22.96823
846.861	23.07455
847.254	23.45131
847.647	23.76391
848.04	23.56883
848.432	23.89991
848.825	23.14987
849.217	22.90972
849.61	24.6052
850.002	23.73746
850.395	23.56513
850.787	24.49338
851.179	23.08922
851.572	23.84978
851.964	24.12671
852.356	24.33436
852.748	23.15037
853.14	22.80181
853.532	23.75114
853.924	23.25435
854.315	23.29468
854.707	23.51344
855.099	24.18432
855.491	23.10684
855.882	23.50232
856.274	23.98398
856.665	24.29986
857.056	23.767
857.448	23.9982
857.839	24.41268
858.23	23.16965
858.621	23.13251
859.012	24.18495
859.403	23.53569
859.794	23.63331
860.185	23.09119
860.576	23.82775
860.967	23.96947
861.358	24.56407
861.748	23.04829
862.139	23.54117
862.529	23.33727
862.92	22.78853
863.31	23.61786
863.701	23.45372
864.091	23.45446
864.481	23.72311
864.872	23.54197
865.262	23.43074
865.652	23.82765
866.042	23.83208
866.432	23.02582
866.822	24.55253
867.211	24.45155
867.601	23.33594
867.991	23.56634
868.381	23.55003
868.77	23.07309
869.16	23.56991
869.549	24.08949
869.939	23.98272
870.328	23.66607
870.717	23.17553
871.106	23.95711
871.496	23.61417
871.885	23.60655
872.274	23.20364
872.663	23.6368
873.052	23.92147
873.441	23.41553
873.829	23.06929
874.218	23.37938
874.607	23.18495
874.996	23.16293
875.384	23.50984
875.773	22.89979
876.161	22.49178
876.549	23.23938
876.938	22.94034
877.326	22.36699
877.714	23.05449
878.102	22.57748
878.491	22.34118
878.879	22.94326
879.267	22.32339
879.655	22.37981
880.042	23.30355
880.43	23.24248
880.818	23.05658
881.206	23.59918
881.593	23.58321
881.981	23.38014
882.368	23.59933
882.756	23.87135
883.143	23.55888
883.53	23.42483
883.918	23.09558
884.305	23.05539
884.692	23.07342
885.079	23.18254
885.466	23.06412
885.853	23.41652
886.24	23.50902
886.627	23.37335
887.014	22.71014
887.4	23.03976
887.787	22.96276
888.174	23.05968
888.56	23.74507
888.947	23.67032
889.333	22.52748
889.719	23.53257
890.106	23.03406
890.492	22.69678
890.878	23.34141
891.264	22.98567
891.65	22.78166
892.036	22.67362
892.422	23.23974
892.808	22.60571
893.194	22.77904
893.58	22.70077
893.965	22.81031
894.351	22.11405
894.736	22.6865
895.122	23.31323
895.507	23.40872
895.893	23.29921
896.278	23.02595
896.663	22.91318
897.049	22.62186
897.434	23.24067
897.819	23.1206
898.204	22.51627
898.589	23.143
898.974	23.14682
899.359	22.32199
899.743	22.36726
900.128	22.86344
900.513	22.52017
900.897	23.32391
901.282	23.04572
901.667	22.82486
902.051	22.87079
902.435	22.62352
902.82	22.51291
903.204	22.02755
903.588	22.47135
903.972	22.52046
904.356	22.27115
904.74	22.42652
905.124	23.32268
905.508	23.04111
905.892	22.67107
906.276	23.26348
906.659	22.62549
907.043	22.95609
907.427	22.81629
907.81	23.1668
908.194	23.30067
908.577	23.05029
908.96	23.76217
909.344	23.27656
909.727	21.98361
910.11	23.33456
910.493	23.10955
910.876	23.18448
911.259	22.77804
911.642	23.08238
912.025	22.09541
912.408	22.29649
912.79	21.96828
913.173	22.15439
913.556	22.51131
913.938	22.58588
914.321	22.71668
914.703	21.6354
915.086	21.98705
915.468	22.47031
915.85	21.91974
916.232	22.23498
916.614	23.00655
916.996	22.95321
917.378	22.34342
917.76	22.20819
918.142	22.44856
918.524	22.30346
918.906	22.15214
919.288	22.19963
919.669	22.4557
920.051	21.81764
920.432	22.47207
920.814	22.12554
921.195	22.35785
921.577	22.87098
921.958	23.30248
922.339	22.88261
922.72	22.07994
923.101	22.11592
923.482	23.24288
923.863	22.67255
924.244	21.50417
924.625	22.85205
925.006	22.02066
925.387	22.03851
925.767	23.80555
926.148	22.82582
926.528	22.95917
926.909	22.59463
927.289	22.04835
927.67	22.32253
928.05	21.7394
928.43	23.13696
928.81	23.42328
929.191	21.88685
929.571	22.02453
929.951	21.6768
930.331	22.50126
930.71	21.91768
931.09	22.29528
931.47	22.59899
931.85	22.31175
932.229	21.25306
932.609	22.41223
932.988	22.75148
933.368	21.86958
933.747	21.00962
934.127	22.08123
934.506	22.47344
934.885	20.54078
935.264	20.97017
935.643	22.21822
936.022	21.48245
936.401	21.0589
936.78	21.94556
937.159	21.18799
937.538	21.90918
937.916	21.72723
938.295	22.16864
938.674	22.6496
939.052	21.08265
939.431	21.43099
939.809	21.34147
940.187	22.36878
940.566	23.08646
940.944	20.21633
941.322	22.84002
941.7	21.10488
942.078	21.99514
942.456	21.82107
942.834	20.23635
943.212	20.81298
943.59	22.06204
943.968	21.30044
944.345	21.81134
944.723	21.28561
945.1	21.65196
945.478	21.98557
945.855	20.70439
946.233	21.63378
946.61	22.20639
946.987	21.06465
947.365	21.76426
947.742	20.69039
948.119	21.33148
948.496	20.29311
948.873	20.11897
949.25	21.39544
949.626	21.94209
950.003	21.92962
950.38	20.53538
950.756	21.52373
951.133	20.54002
951.51	21.56417
951.886	19.81211
952.262	20.16943
952.639	20.36927
953.015	22.00946
953.391	20.6996
953.767	20.44228
954.143	20.94067
954.519	19.98727
954.895	20.56062
955.271	21.55782
955.647	22.03096
956.023	22.60177
956.399	21.01753
956.774	21.60515
957.15	20.11871
957.525	21.78203
957.901	22.75946
958.276	19.33664
958.652	19.68201
959.027	20.98766
959.402	21.09146
959.777	19.87566
960.152	20.5294
960.527	21.09188
960.902	20.93533
961.277	20.30465
961.652	20.99959
962.027	20.1186
962.402	20.80702
962.776	21.52632
963.151	20.83955
963.525	18.50459
963.9	22.58904
964.274	21.73693
964.649	20.20381
965.023	18.05666
965.397	21.69971
965.771	19.62681
966.146	21.43935
966.52	18.48118
966.894	20.2379
967.268	20.39511
967.641	17.95713
968.015	18.79474
968.389	20.56059
968.763	18.83956
969.136	19.54271
969.51	21.58765
969.883	20.36206
970.257	20.00045
970.63	22.56297
971.003	19.95457
971.377	19.73575
971.75	18.33523
972.123	20.2598
972.496	21.69536
972.869	20.96255
973.242	20.06691
973.615	18.17789
973.988	19.9564
974.36	20.51367
974.733	19.41863
975.106	19.84935
975.478	18.76205
975.851	20.28882
976.223	20.27589
976.596	19.74984
976.968	20.50353
977.34	20.8511
977.712	18.94095
978.085	18.70225
978.457	19.07802
978.829	19.60443
979.201	18.78754
979.573	19.26956
979.944	19.22623
980.316	18.82729
980.688	17.65046
981.059	20.43751
981.431	20.88087
981.803	19.31733
982.174	20.43783
982.545	20.90594
982.917	19.56656
983.288	21.32498
983.659	19.73498
984.03	19.42005
984.401	19.18784
984.772	17.94157
985.143	19.46538
985.514	20.77456
985.885	19.43527
986.256	19.6921
986.627	20.23027
986.997	17.3913
987.368	19.09172
987.738	20.92462
988.109	20.67751
988.479	17.72054
988.85	16.68221
989.22	17.66969
989.59	18.78175
989.96	19.35626
990.33	19.49415
990.7	18.48466
991.07	19.127
991.44	17.64381
991.81	17.9513
992.18	16.76475
992.549	19.92924
992.919	18.00006
993.289	19.39847
993.658	18.8035
994.028	18.2276
994.397	20.43937
994.766	19.54718
995.136	18.38318
995.505	19.82993
995.874	18.48578
996.243	18.46175
996.612	18.75205
996.981	18.11031
997.35	20.83706
997.719	19.13705
998.088	18.38556
998.456	18.94083
998.825	21.21437
999.194	17.22713
999.562	21.85507
999.931	19.66981
1000.299	20.10684
1000.667	21.56971
1001.036	22.26562
1001.404	17.17076
1001.772	20.18143
1002.14	21.38715
1002.508	19.92297
1002.876	22.57709
1003.244	19.1346
1003.612	21.22164
1003.98	19.81758
1004.347	18.95238
1004.715	19.93948
1005.083	18.0412
1005.45	16.46631
1005.818	19.09008
1006.185	19.13954
1006.552	22.08974
1006.92	20.00938
1007.287	21.19474
1007.654	18.78077
1008.021	20.78057
1008.388	23.88853
1008.755	18.1378
1009.122	16.65776
1009.489	20.96227
1009.856	22.21089
1010.222	16.36111
1010.589	19.25619
1010.956	20.17566
1011.322	15.78249
1011.689	20.22941
1012.055	18.9458
1012.421	20.0541
1012.788	17.42335
1013.154	23.23716
1013.52	15.54126
1013.886	18.25714
1014.252	17.64582
1014.618	19.78378
1014.984	18.91151
1015.35	18.84226
1015.716	16.60665
1016.081	21.72906
1016.447	21.08136
1016.813	19.13324
1017.178	17.67438
1017.544	19.23426
1017.909	19.90536
1018.274	22.53488
1018.64	18.59898
1019.005	13.03456
1019.37	26.67459
1019.735	21.95075
1020.1	26.78378
1020.465	22.22671
1020.83	20.54901
1021.195	25.20873
1021.56	24.52406
1021.924	25.2727
1022.289	23.7644
1022.654	21.95639
1023.018	10.45239
1023.383	26.03537
1023.747	16.65159
1024.111	20.50805
1024.476	24.67658
1024.84	21.66259
1025.204	25.91974
1025.568	15.90355
1025.932	17.32473
1026.296	25.44822
1026.66	19.14641
1027.024	17.44601
1027.387	12.933
1027.751	22.13869
1028.115	25.359
1028.478	24.00715
1028.842	28.11375
1029.205	34.96801
1029.569	14.56305
1029.932	17.2997
1030.295	21.2569
1030.659	31.8453
1031.022	20.9556
1031.385	27.66944
1031.748	23.43288
1032.111	17.0315
1032.474	21.67483
1032.836	26.30054
1033.199	21.3797
1033.562	21.11684
1033.924	30.6478
1034.287	20.99485
1034.65	26.07385
1035.012	19.3535
1035.374	27.15413
1035.737	35.13335
1036.099	33.62183
1036.461	25.23779
1036.823	21.21387
1037.185	28.46998
1037.547	36.26054
1037.909	27.85678
1038.271	11.39163
1038.633	27.96348
1038.995	20.13785
1039.356	18.08017
1039.718	30.78549
1040.08	22.92304
1040.441	19.85599
1040.803	26.10919
1041.164	18.64868
1041.525	23.27319
1041.886	23.6807
1042.248	16.20826
1042.609	31.52931
1042.97	35.84516
1043.331	19.35978
1043.692	14.16997
1044.053	18.86796
1044.413	22.58326
1044.774	9.50123
1045.135	21.27689
1045.495	22.71965
1045.856	28.61047
1046.216	17.04053
1046.577	8.28457
1046.937	27.91093
1047.298	23.80198
