Data from 1016water_Reflection__10__20-40-45-538.txt Node

Date: Thu Oct 16 20:40:45 AST 2025
User: lin
Spectrometer: SR600411
Trigger mode: 0
Integration Time (sec): 5.601500E-2
Scans to average: 5
Nonlinearity correction enabled: true
Boxcar width: 0
Storing dark spectrum: false
XAxis mode: Wavelengths
Number of Pixels in Spectrum: 2048
>>>>>Begin Spectral Data<<<<<
187.982	53.25025
188.456	66.08293
188.93	62.58007
189.403	62.91159
189.877	59.44709
190.351	57.19413
190.825	51.45713
191.298	69.58953
191.772	55.54366
192.246	65.13439
192.719	53.59266
193.193	50.49524
193.666	63.81903
194.139	44.49021
194.613	49.98653
195.086	56.28314
195.559	66.41376
196.033	59.79781
196.506	68.71715
196.979	56.41192
197.452	67.69011
197.925	51.29834
198.398	59.65971
198.871	68.78407
199.344	63.12666
199.816	57.91389
200.289	58.25999
200.762	47.92193
201.235	52.43974
201.707	50.23375
202.18	31.38801
202.652	50.29113
203.125	50.7178
203.597	51.64817
204.07	75.71625
204.542	53.362
205.014	33.3254
205.486	73.64876
205.959	54.18114
206.431	35.87461
206.903	49.99266
207.375	60.76309
207.847	51.40142
208.319	47.21688
208.791	16.42476
209.263	-9.47173
209.734	76.86095
210.206	50.97534
210.678	72.79509
211.15	47.05295
211.621	21.47697
212.093	52.6954
212.564	60.18006
213.036	24.99598
213.507	50.52161
213.979	71.52732
214.45	-3.84533
214.921	88.39058
215.392	52.24676
215.864	68.5139
216.335	55.21731
216.806	39.83156
217.277	65.93001
217.748	55.54938
218.219	64.28189
218.69	33.76814
219.161	45.55113
219.631	40.34544
220.102	59.9931
220.573	36.35809
221.043	79.16353
221.514	30.92373
221.985	52.52036
222.455	46.14744
222.926	81.90168
223.396	37.49517
223.866	59.01054
224.337	28.42725
224.807	38.17667
225.277	61.72461
225.747	64.69972
226.217	52.16822
226.687	44.76955
227.157	64.28189
227.627	29.62628
228.097	62.38772
228.567	37.85927
229.037	55.76415
229.507	53.76836
229.977	28.09433
230.446	70.63772
230.916	55.35166
231.386	50.55739
231.855	16.80343
232.325	69.16159
232.794	70.24292
233.263	52.30126
233.733	74.7984
234.202	22.21914
234.671	68.03705
235.14	48.71409
235.61	55.92644
236.079	-28.88557
236.548	91.95275
237.017	38.97749
237.486	58.32755
237.955	56.95818
238.424	67.02898
238.892	80.5522
239.361	51.0824
239.83	40.97776
240.299	54.47102
240.767	26.74085
241.236	52.87948
241.704	57.51665
242.173	52.49604
242.641	84.88153
243.109	54.94059
243.578	43.28032
244.046	89.9063
244.514	75.27762
244.982	40.82758
245.451	90.13959
245.919	42.10159
246.387	67.77388
246.855	65.11241
247.323	40.93879
247.791	38.45788
248.258	42.56936
248.726	37.49666
249.194	91.96265
249.662	91.04369
250.129	38.59113
250.597	56.89091
251.064	56.85778
251.532	42.41785
251.999	57.88923
252.467	101.5627
252.934	66.97648
253.401	76.59241
253.869	39.50233
254.336	77.64413
254.803	92.85586
255.27	64.63043
255.737	22.35002
256.204	69.22638
256.671	11.82603
257.138	40.27434
257.605	101.88699
258.072	48.4551
258.539	75.7244
259.005	47.29364
259.472	44.18184
259.939	73.4656
260.405	76.46877
260.872	29.99667
261.338	42.85204
261.805	51.60676
262.271	58.19084
262.737	79.80437
263.203	53.60347
263.67	84.53357
264.136	81.60661
264.602	32.04792
265.068	76.74114
265.534	55.09723
266	15.3036
266.466	47.46985
266.932	52.32133
267.398	51.23367
267.864	35.15047
268.329	78.29832
268.795	54.616
269.261	91.77973
269.726	30.55253
270.192	63.6303
270.657	59.47721
271.123	51.78017
271.588	54.3433
272.053	55.06907
272.519	61.41135
272.984	58.45841
273.449	113.33513
273.914	32.99562
274.379	73.73357
274.844	71.69385
275.309	32.96305
275.774	67.32233
276.239	52.09495
276.704	86.48391
277.169	79.75922
277.634	44.32515
278.098	55.55071
278.563	57.79289
279.028	29.40826
279.492	50.85632
279.957	90.90765
280.421	-11.28878
280.886	52.47025
281.35	53.46036
281.814	60.71164
282.279	70.76657
282.743	56.51837
283.207	40.17324
283.671	72.12628
284.135	39.99405
284.599	75.7244
285.063	57.68728
285.527	41.76834
285.991	59.99572
286.455	45.87817
286.919	58.09017
287.382	46.14808
287.846	41.99517
288.31	51.84784
288.773	77.77531
289.237	71.61864
289.7	54.71177
290.164	50.95638
290.627	109.21204
291.09	62.37154
291.554	118.68532
292.017	74.74377
292.48	43.92
292.943	42.85204
293.406	56.62246
293.869	57.46705
294.332	73.58082
294.795	27.15732
295.258	66.01484
295.721	79.60834
296.184	81.35416
296.646	66.66323
297.109	60.80731
297.572	51.18631
298.034	83.33151
298.497	66.38129
298.959	62.81329
299.422	77.93886
299.884	67.28505
300.346	12.64177
300.809	31.34043
301.271	51.01555
301.733	83.8217
302.195	48.18866
302.657	60.41211
303.119	40.90593
303.581	46.14937
304.043	30.48436
304.505	63.91309
304.967	21.27348
305.429	37.30722
305.891	78.12283
306.352	62.31563
306.814	43.05205
307.275	89.82944
307.737	41.37652
308.198	80.14854
308.66	77.37804
309.121	26.7578
309.583	57.32969
310.044	42.02565
310.505	8.48893
310.966	86.41787
311.428	80.94981
311.889	64.21521
312.35	42.60313
312.811	41.07908
313.272	74.50789
313.733	98.68401
314.193	140.91429
314.654	51.6083
315.115	85.39106
315.576	35.79878
316.036	79.5669
316.497	49.36317
316.957	58.17651
317.418	31.1092
317.878	52.98567
318.339	58.22403
318.799	76.3597
319.259	79.03022
319.72	77.14041
320.18	44.63736
320.64	104.16729
321.1	38.63222
321.56	79.79481
322.02	87.49774
322.48	49.99614
322.94	50.5704
323.4	36.16591
323.86	58.92319
324.319	65.27454
324.779	57.8094
325.239	82.87976
325.698	102.59781
326.158	59.25538
326.617	57.80941
327.077	20.33709
327.536	48.74604
327.996	153.45771
328.455	43.52527
328.914	43.01907
329.373	46.66296
329.832	35.41231
330.292	59.41699
330.751	83.54215
331.21	43.42952
331.668	79.70793
332.127	64.099
332.586	52.08096
333.045	53.60346
333.504	39.09147
333.962	40.38213
334.421	126.47511
334.88	72.12872
335.338	55.13494
335.797	21.33084
336.255	31.07794
336.714	64.09901
337.172	57.13708
337.63	-29.40791
338.088	63.37702
338.547	62.64675
339.005	54.21278
339.463	88.28601
339.921	61.10688
340.379	48.14414
340.837	61.95222
341.295	56.44859
341.753	60.95202
342.21	43.20593
342.668	40.23999
343.126	36.36011
343.584	63.9589
344.041	43.6843
344.499	56.87544
344.956	64.99639
345.414	52.68358
345.871	78.42795
346.328	77.21244
346.786	58.46889
347.243	65.97507
347.7	55.2206
348.157	63.88395
348.614	36.24633
349.071	56.73072
349.528	69.4399
349.985	69.82275
350.442	57.40217
350.899	66.30027
351.356	91.56499
351.812	83.78079
352.269	68.8027
352.726	81.47906
353.182	22.21945
353.639	72.96864
354.095	81.6066
354.552	24.52441
355.008	90.98162
355.465	24.74875
355.921	35.70855
356.377	93.20259
356.833	44.82332
357.289	52.16822
357.745	132.19125
358.201	41.83718
358.657	52.09495
359.113	79.3783
359.569	47.46055
360.025	63.6293
360.481	62.76739
360.937	44.37588
361.392	71.75788
361.848	66.85649
362.303	52.66529
362.759	81.07546
363.214	60.53179
363.67	66.65743
364.125	56.14117
364.581	56.28684
365.036	50.42341
365.491	64.04415
365.946	56.90281
366.401	52.29506
366.856	56.74059
367.311	55.82026
367.766	52.21898
368.221	64.18147
368.676	58.81663
369.131	62.4789
369.586	58.24739
370.041	54.17656
370.495	53.21782
370.95	63.29278
371.404	53.90885
371.859	55.9985
372.313	52.47093
372.768	51.4238
373.222	55.11699
373.676	52.70835
374.131	51.32527
374.585	54.28488
375.039	53.76614
375.493	57.68759
375.947	54.44423
376.401	54.89018
376.855	58.47147
377.309	54.45838
377.763	54.22603
378.217	56.82378
378.67	54.59706
379.124	57.98417
379.578	55.74401
380.031	54.9133
380.485	57.0526
380.938	57.82747
381.392	52.22566
381.845	54.13177
382.299	56.63988
382.752	54.04105
383.205	55.46467
383.658	54.15214
384.111	52.75531
384.564	56.52198
385.018	56.67264
385.471	53.3741
385.923	55.55284
386.376	54.6383
386.829	55.43941
387.282	56.58268
387.735	56.57123
388.187	56.40652
388.64	55.62318
389.093	55.22921
389.545	56.12793
389.998	56.58265
390.45	55.46485
390.902	54.90777
391.355	55.51403
391.807	56.64453
392.259	56.06856
392.711	56.86997
393.163	56.04393
393.615	56.71045
394.068	55.96015
394.519	56.34208
394.971	56.17655
395.423	55.64222
395.875	56.44938
396.327	56.09366
396.779	56.71439
397.23	56.49785
397.682	56.64595
398.133	55.59789
398.585	55.67366
399.036	55.29763
399.488	54.97897
399.939	55.5291
400.39	55.55804
400.842	55.47846
401.293	55.48137
401.744	55.05605
402.195	54.94643
402.646	54.43303
403.097	54.27001
403.548	54.47796
403.999	54.78648
404.45	54.80618
404.9	54.23816
405.351	53.78011
405.802	53.75957
406.253	54.30445
406.703	53.62144
407.154	53.43154
407.604	53.20238
408.055	52.93529
408.505	52.92225
408.955	52.45267
409.406	53.00324
409.856	52.35451
410.306	52.81881
410.756	51.94506
411.206	52.28678
411.656	52.30199
412.106	51.11954
412.556	50.58681
413.006	51.32193
413.456	51.24324
413.905	50.76883
414.355	51.03389
414.805	51.07398
415.254	49.94403
415.704	50.23295
416.153	49.64523
416.603	49.66411
417.052	49.93323
417.502	49.59821
417.951	50.05083
418.4	49.41834
418.849	49.29544
419.298	49.30634
419.748	48.49026
420.197	48.62367
420.646	47.78709
421.094	48.39023
421.543	48.74922
421.992	47.70197
422.441	47.72192
422.89	47.98137
423.338	47.53488
423.787	47.24864
424.236	47.34535
424.684	47.21062
425.133	46.47627
425.581	47.10342
426.029	46.93344
426.478	46.67708
426.926	46.78944
427.374	46.71618
427.822	46.64772
428.27	46.29256
428.718	45.90536
429.166	46.63825
429.614	46.44532
430.062	46.07582
430.51	46.01958
430.958	46.03764
431.406	46.03611
431.853	45.86934
432.301	45.93364
432.749	45.70795
433.196	44.77521
433.644	45.11858
434.091	44.94055
434.538	45.41763
434.986	44.97808
435.433	45.57094
435.88	45.41529
436.327	45.17352
436.775	45.11902
437.222	45.15914
437.669	45.12447
438.116	45.14983
438.563	45.09838
439.009	45.11629
439.456	44.96385
439.903	45.22562
440.35	45.38767
440.796	44.8737
441.243	44.83898
441.689	44.91642
442.136	45.03396
442.582	44.76981
443.029	45.05682
443.475	44.82575
443.921	44.74856
444.368	44.74551
444.814	44.75364
445.26	44.8477
445.706	44.79813
446.152	45.13604
446.598	44.91384
447.044	44.80928
447.49	45.30812
447.936	44.72559
448.381	45.0963
448.827	45.25236
449.273	45.22051
449.718	45.40537
450.164	44.90039
450.61	44.85413
451.055	44.97643
451.5	45.25639
451.946	44.94717
452.391	45.52574
452.836	45.20395
453.282	45.4865
453.727	45.35353
454.172	45.68884
454.617	45.63363
455.062	45.50225
455.507	45.9136
455.952	45.34812
456.396	45.76495
456.841	45.78284
457.286	46.00642
457.731	46.32806
458.175	45.91397
458.62	46.26979
459.064	46.17816
459.509	46.70477
459.953	45.93664
460.398	46.18681
460.842	46.62588
461.286	46.29793
461.73	46.8667
462.174	46.87775
462.619	46.95301
463.063	47.68326
463.507	47.82957
463.951	47.68874
464.394	47.60162
464.838	47.95883
465.282	47.65325
465.726	48.12298
466.17	48.25296
466.613	47.98968
467.057	48.46976
467.5	48.85684
467.944	48.84177
468.387	49.26897
468.831	49.13742
469.274	49.15445
469.717	49.23911
470.16	49.94402
470.603	50.3857
471.047	50.59234
471.49	50.73796
471.933	50.90328
472.376	50.69115
472.818	51.24344
473.261	51.34063
473.704	51.36102
474.147	51.46285
474.59	51.39735
475.032	52.20198
475.475	52.4698
475.917	52.38416
476.36	52.13157
476.802	52.51199
477.245	52.37691
477.687	53.55702
478.129	53.09912
478.571	53.50008
479.013	54.01932
479.456	53.5489
479.898	54.49334
480.34	54.09806
480.782	54.24252
481.224	54.50991
481.665	54.30001
482.107	54.17076
482.549	54.60121
482.991	54.5
483.432	54.86436
483.874	54.83355
484.315	54.74537
484.757	54.6692
485.198	55.15949
485.64	55.30726
486.081	55.2034
486.522	55.76068
486.963	55.74943
487.405	55.49453
487.846	55.77543
488.287	56.22586
488.728	56.2719
489.169	56.13193
489.61	56.53752
490.05	56.41533
490.491	56.98157
490.932	56.2865
491.373	56.07778
491.813	56.52421
492.254	56.15568
492.694	56.52799
493.135	56.62142
493.575	56.60194
494.016	56.39071
494.456	56.67904
494.896	56.86728
495.336	57.00441
495.777	57.44204
496.217	57.11089
496.657	56.75765
497.097	57.21598
497.537	57.00922
497.977	56.90181
498.416	57.45062
498.856	57.82353
499.296	57.63893
499.736	57.72214
500.175	57.70115
500.615	57.81907
501.054	58.19564
501.494	58.03573
501.933	57.90152
502.373	58.03823
502.812	58.7735
503.251	58.60824
503.69	58.54518
504.129	58.97219
504.569	59.42943
505.008	59.2906
505.447	59.22388
505.886	59.79328
506.324	59.66696
506.763	60.41031
507.202	60.27799
507.641	60.12043
508.079	60.24081
508.518	60.56725
508.957	61.11843
509.395	60.9116
509.834	61.42961
510.272	61.24458
510.71	61.5674
511.149	61.57258
511.587	62.08164
512.025	62.04362
512.463	61.93015
512.901	62.05796
513.339	62.38726
513.777	63.61536
514.215	63.51755
514.653	62.71557
515.091	63.66377
515.529	63.82382
515.966	63.64133
516.404	64.4353
516.842	63.94517
517.279	64.42245
517.717	64.05806
518.154	64.35775
518.592	64.19788
519.029	64.92033
519.466	65.23754
519.904	65.79274
520.341	65.66475
520.778	65.49555
521.215	65.95386
521.652	65.79203
522.089	66.02406
522.526	66.26035
522.963	66.4078
523.399	66.34182
523.836	66.94171
524.273	67.44116
524.71	67.91005
525.146	68.07359
525.583	67.88826
526.019	68.24018
526.456	68.00549
526.892	68.12865
527.328	68.52131
527.765	68.90787
528.201	68.42678
528.637	69.22652
529.073	69.35142
529.509	69.51891
529.945	69.48636
530.381	69.83771
530.817	69.40556
531.253	69.91633
531.689	70.27329
532.124	70.55214
532.56	70.64199
532.996	70.60778
533.431	70.6959
533.867	70.80537
534.302	71.5256
534.738	71.28843
535.173	71.10885
535.608	71.53341
536.044	72.46196
536.479	72.32489
536.914	72.25698
537.349	71.94689
537.784	71.91345
538.219	72.35077
538.654	71.98799
539.089	72.13872
539.524	72.22078
539.959	71.80173
540.393	72.6098
540.828	72.63981
541.263	72.925
541.697	71.9901
542.132	72.58015
542.566	72.30498
543.001	72.44323
543.435	73.04286
543.869	72.82469
544.303	72.52347
544.738	72.93019
545.172	72.9378
545.606	72.12275
546.04	72.67061
546.474	72.46716
546.908	72.17164
547.342	72.47576
547.775	72.66856
548.209	71.87346
548.643	72.78947
549.077	72.6982
549.51	72.34067
549.944	72.33452
550.377	72.51677
550.811	72.01821
551.244	71.23101
551.677	71.32106
552.111	71.60366
552.544	71.3556
552.977	70.90744
553.41	70.82323
553.843	70.50337
554.276	70.10014
554.709	69.6711
555.142	70.08663
555.575	69.41714
556.008	69.92605
556.44	69.40294
556.873	68.95376
557.306	69.04265
557.738	68.7542
558.171	69.00605
558.603	68.18616
559.036	67.62238
559.468	67.79109
559.9	67.75226
560.333	67.16092
560.765	67.28396
561.197	67.119
561.629	66.50274
562.061	66.84504
562.493	66.81152
562.925	66.90366
563.357	66.08559
563.789	66.40411
564.22	65.61167
564.652	65.73754
565.084	65.20518
565.515	65.37742
565.947	64.94036
566.378	64.88271
566.81	64.79531
567.241	64.44862
567.672	64.44598
568.104	64.23809
568.535	63.89428
568.966	63.71077
569.397	63.16434
569.828	62.72356
570.259	62.63396
570.69	61.76906
571.121	61.60202
571.552	61.29546
571.983	61.26453
572.414	60.71366
572.844	61.07231
573.275	60.81085
573.705	60.41186
574.136	60.36837
574.566	60.20052
574.997	60.21996
575.427	60.0694
575.857	59.92268
576.288	59.52109
576.718	59.64549
577.148	59.03768
577.578	59.1175
578.008	58.71188
578.438	58.77671
578.868	58.267
579.298	57.95366
579.728	57.80404
580.157	57.40807
580.587	57.14969
581.017	57.13567
581.446	56.56029
581.876	56.47865
582.305	56.20907
582.735	56.18644
583.164	55.98987
583.593	55.76195
584.023	55.52035
584.452	55.31789
584.881	55.15623
585.31	55.15218
585.739	54.9377
586.168	54.82914
586.597	54.64963
587.026	54.33383
587.455	53.92394
587.884	54.12024
588.312	53.76226
588.741	53.47943
589.17	53.23868
589.598	53.28843
590.027	52.68955
590.455	52.61705
590.884	52.5272
591.312	52.50642
591.74	52.26837
592.168	52.32426
592.597	52.00526
593.025	51.94964
593.453	51.66544
593.881	51.54557
594.309	51.18059
594.737	51.25564
595.165	50.76137
595.592	50.98252
596.02	51.03762
596.448	50.29572
596.875	50.61199
597.303	50.09689
597.73	49.9352
598.158	50.39804
598.585	49.98691
599.013	49.81296
599.44	49.41947
599.867	49.52607
600.294	49.31081
600.722	48.78085
601.149	49.06745
601.576	49.00117
602.003	49.05171
602.43	48.39476
602.856	48.49966
603.283	47.97836
603.71	48.19861
604.137	48.35024
604.563	48.49708
604.99	48.35355
605.416	48.23867
605.843	48.35097
606.269	47.78094
606.696	47.97904
607.122	47.73504
607.548	47.44605
607.975	47.49688
608.401	47.50294
608.827	47.04311
609.253	47.04642
609.679	47.34717
610.105	47.14817
610.531	47.20497
610.956	47.02399
611.382	46.88093
611.808	46.89177
612.234	46.60155
612.659	46.80971
613.085	46.48722
613.51	46.65474
613.936	46.66044
614.361	46.78517
614.786	46.8232
615.212	46.30499
615.637	46.55092
616.062	46.12664
616.487	46.75551
616.912	46.24364
617.337	46.67632
617.762	46.59184
618.187	46.56256
618.612	46.36958
619.037	46.54038
619.461	46.39597
619.886	46.51125
620.311	46.59897
620.735	46.69727
621.16	46.60295
621.584	46.73729
622.008	46.30993
622.433	46.72186
622.857	46.46342
623.281	46.00625
623.705	46.38827
624.13	46.12845
624.554	46.101
624.978	46.23548
625.402	45.55419
625.826	45.53887
626.249	45.90215
626.673	45.47892
627.097	45.99509
627.521	45.63654
627.944	46.40888
628.368	46.00772
628.791	46.21944
629.215	45.98121
629.638	45.7818
630.061	46.09584
630.485	46.34433
630.908	46.41729
631.331	45.96869
631.754	46.6912
632.177	47.05834
632.6	46.91306
633.023	46.89355
633.446	46.98707
633.869	47.43713
634.292	47.76988
634.715	47.97718
635.137	47.81326
635.56	48.03546
635.982	48.31816
636.405	47.88975
636.827	48.34466
637.25	48.43764
637.672	47.95686
638.094	48.2077
638.517	48.35598
638.939	47.89156
639.361	48.81611
639.783	48.7576
640.205	48.98306
640.627	48.97531
641.049	48.69584
641.471	49.0646
641.893	49.3622
642.314	49.56617
642.736	49.19529
643.158	49.33637
643.579	49.80073
644.001	49.36997
644.422	50.24476
644.844	50.24548
645.265	50.40234
645.686	50.11686
646.107	50.85539
646.529	50.45217
646.95	50.88745
647.371	50.59238
647.792	51.02364
648.213	51.62171
648.634	51.25982
649.055	51.47998
649.475	51.92689
649.896	51.70963
650.317	52.16751
650.737	52.09927
651.158	51.98734
651.578	52.40314
651.999	53.00456
652.419	52.41108
652.84	53.08634
653.26	53.19316
653.68	53.16359
654.1	53.31926
654.521	52.57159
654.941	53.77157
655.361	53.71146
655.781	53.63164
656.2	54.06375
656.62	54.30802
657.04	54.27284
657.46	53.89803
657.879	54.47182
658.299	54.90828
658.719	54.29346
659.138	54.54119
659.558	54.66319
659.977	55.4983
660.396	55.41472
660.816	55.91018
661.235	55.09896
661.654	55.54988
662.073	55.37876
662.492	55.74971
662.911	55.85313
663.33	55.90798
663.749	56.35615
664.168	57.02692
664.587	57.58462
665.006	57.62877
665.424	56.7011
665.843	57.49902
666.261	57.37986
666.68	57.30312
667.098	57.85595
667.517	57.17151
667.935	57.46304
668.353	57.60193
668.772	57.5117
669.19	57.77526
669.608	57.28486
670.026	57.76993
670.444	57.57266
670.862	57.78568
671.28	57.99696
671.698	58.16767
672.115	57.60257
672.533	56.91445
672.951	57.6846
673.368	57.76422
673.786	57.3299
674.203	57.34147
674.621	57.7421
675.038	57.27177
675.456	57.68155
675.873	57.24158
676.29	57.39959
676.707	57.39794
677.124	57.62808
677.541	57.30776
677.958	57.71856
678.375	57.58979
678.792	57.20629
679.209	57.23187
679.626	56.96989
680.043	57.29973
680.459	56.69649
680.876	56.71499
681.292	56.73377
681.709	56.34789
682.125	55.8032
682.542	55.87733
682.958	55.95357
683.374	56.17208
683.79	55.92569
684.207	55.65019
684.623	55.29201
685.039	55.73321
685.455	55.56606
685.871	55.09885
686.286	55.50101
686.702	54.97169
687.118	54.86853
687.534	54.6062
687.949	54.89486
688.365	54.82688
688.781	54.40874
689.196	53.95194
689.611	53.80417
690.027	53.19078
690.442	53.25826
690.857	53.32655
691.273	53.11875
691.688	52.95684
692.103	52.31424
692.518	52.68863
692.933	52.36681
693.348	52.17822
693.763	51.75478
694.177	51.45392
694.592	51.67884
695.007	51.02999
695.421	51.22353
695.836	50.88
696.25	50.98845
696.665	50.7756
697.079	50.68881
697.494	50.18858
697.908	49.53201
698.322	49.3533
698.736	49.67494
699.151	49.39112
699.565	49.01895
699.979	48.84849
700.393	48.39036
700.806	48.51309
701.22	48.29999
701.634	48.29426
702.048	47.17777
702.461	47.26652
702.875	46.98415
703.289	46.83133
703.702	46.97529
704.116	46.58569
704.529	45.48465
704.942	45.85843
705.356	45.53739
705.769	45.13167
706.182	44.77656
706.595	44.52436
707.008	44.75464
707.421	44.41592
707.834	44.30421
708.247	43.90499
708.66	43.62161
709.072	43.9478
709.485	43.73227
709.898	43.31439
710.31	42.99736
710.723	42.93604
711.135	42.40469
711.548	42.77441
711.96	41.34035
712.373	41.82894
712.785	41.08533
713.197	41.16456
713.609	40.58901
714.021	40.25131
714.433	39.51055
714.845	39.90578
715.257	39.22579
715.669	39.30107
716.081	39.04254
716.493	38.75732
716.904	38.7776
717.316	38.64181
717.727	38.26066
718.139	38.09135
718.55	38.29161
718.962	37.60114
719.373	37.37405
719.784	36.8239
720.196	36.55404
720.607	36.42189
721.018	36.31562
721.429	36.04146
721.84	35.61503
722.251	36.08902
722.662	35.62022
723.073	35.53338
723.483	34.88494
723.894	34.67339
724.305	34.65982
724.715	34.30743
725.126	34.43875
725.536	34.25887
725.947	33.73137
726.357	33.56544
726.768	33.56737
727.178	33.14843
727.588	32.88428
727.998	32.64628
728.408	32.3866
728.818	32.43769
729.228	32.20587
729.638	32.25296
730.048	31.69007
730.458	31.70277
730.868	31.47319
731.277	31.58925
731.687	30.8965
732.097	31.21468
732.506	30.85125
732.916	30.88279
733.325	30.46144
733.734	30.58499
734.144	29.85065
734.553	29.99119
734.962	29.66087
735.371	29.81405
735.78	28.98636
736.189	29.70169
736.598	28.93507
737.007	29.10123
737.416	28.19198
737.825	29.00269
738.233	28.45926
738.642	28.19192
739.051	27.6747
739.459	27.98424
739.868	27.55997
740.276	27.67956
740.684	27.26477
741.093	27.30181
741.501	27.43957
741.909	26.7478
742.317	26.96132
742.725	26.73267
743.133	26.92532
743.541	26.25218
743.949	26.75258
744.357	25.82903
744.765	26.41976
745.173	26.11874
745.58	26.76759
745.988	26.01086
746.396	25.94313
746.803	25.66259
747.211	26.05422
747.618	25.46747
748.025	25.64361
748.433	25.56438
748.84	25.20321
749.247	25.62639
749.654	25.10373
750.061	25.80603
750.468	24.75191
750.875	25.09149
751.282	24.63155
751.689	24.89605
752.096	24.29979
752.502	24.63483
752.909	24.1428
753.316	24.61763
753.722	24.39049
754.129	23.95
754.535	24.46692
754.941	24.11653
755.348	24.29025
755.754	23.81727
756.16	24.28465
756.566	23.401
756.972	23.86743
757.378	23.42649
757.784	23.40279
758.19	23.38072
758.596	23.01267
759.002	24.06756
759.408	23.2484
759.813	23.99904
760.219	23.411
760.624	23.66983
761.03	23.39197
761.435	23.34322
761.841	22.95054
762.246	22.59044
762.651	23.05672
763.057	22.47286
763.462	23.60363
763.867	23.16964
764.272	23.49604
764.677	23.3404
765.082	23.29661
765.487	23.38662
765.892	23.0241
766.296	23.19781
766.701	22.3055
767.106	23.18699
767.51	22.40647
767.915	22.51316
768.319	22.60322
768.724	22.42721
769.128	22.40983
769.532	22.14778
769.936	22.89824
770.341	21.86676
770.745	22.63979
771.149	22.47203
771.553	22.1544
771.957	22.51466
772.361	22.21968
772.764	22.4193
773.168	21.71362
773.572	22.64961
773.976	22.02384
774.379	22.28383
774.783	21.9958
775.186	21.65238
775.59	22.26237
775.993	21.65391
776.396	22.32785
776.8	21.48913
777.203	22.11548
777.606	21.91032
778.009	21.44594
778.412	22.55852
778.815	21.93076
779.218	21.81127
779.621	21.88468
780.023	21.90152
780.426	21.82698
780.829	22.01001
781.231	22.04851
781.634	21.71874
782.036	21.9134
782.439	21.64475
782.841	22.13909
783.244	22.1383
783.646	21.32806
784.048	22.27825
784.45	21.7476
784.852	22.13714
785.254	21.98818
785.656	21.80871
786.058	22.2592
786.46	21.62431
786.862	21.49044
787.264	21.53381
787.665	21.64421
788.067	22.14954
788.468	21.43075
788.87	21.99173
789.271	21.60388
789.673	21.89466
790.074	22.12777
790.475	21.68472
790.877	21.92836
791.278	21.78203
791.679	22.0167
792.08	21.89596
792.481	21.45162
792.882	22.29934
793.283	21.70029
793.683	21.74104
794.084	21.57183
794.485	21.63415
794.886	21.75942
795.286	21.50059
795.687	22.08882
796.087	21.54936
796.487	21.65612
796.888	21.85619
797.288	21.23052
797.688	21.45687
798.088	21.83683
798.489	21.9316
798.889	21.91811
799.289	21.44588
799.689	22.12977
800.088	21.76139
800.488	21.94832
800.888	22.2376
801.288	21.84155
801.687	22.33291
802.087	21.5999
802.486	21.7377
802.886	21.91836
803.285	21.41894
803.685	22.00643
804.084	21.72233
804.483	21.5177
804.882	21.98877
805.281	21.65902
805.68	22.2249
806.079	21.66087
806.478	21.84173
806.877	21.49365
807.276	21.80625
807.675	22.15284
808.074	22.08104
808.472	21.85968
808.871	22.0055
809.269	21.85366
809.668	22.05217
810.066	22.35012
810.465	22.14186
810.863	22.26059
811.261	21.71462
811.659	21.99331
812.057	22.12095
812.455	21.93999
812.853	22.32718
813.251	21.90019
813.649	21.93763
814.047	22.02479
814.445	21.52071
814.843	21.76048
815.24	21.91962
815.638	21.70647
816.035	22.2218
816.433	21.71777
816.83	21.74202
817.228	22.14705
817.625	21.58808
818.022	21.87099
818.419	21.73058
818.816	21.55202
819.213	22.096
819.61	21.31338
820.007	22.1981
820.404	22.22152
820.801	21.91251
821.198	22.45347
821.595	22.29415
821.991	22.14115
822.388	22.88879
822.784	22.76235
823.181	22.96788
823.577	23.37734
823.974	23.25334
824.37	23.58961
824.766	23.1827
825.162	22.81798
825.558	22.94678
825.954	22.51553
826.35	22.62087
826.746	22.95674
827.142	22.62547
827.538	23.10505
827.934	22.8746
828.33	22.81432
828.725	23.32018
829.121	22.63531
829.516	22.6298
829.912	22.92581
830.307	22.31836
830.703	22.57617
831.098	22.50803
831.493	22.26711
831.888	22.19469
832.283	21.8781
832.678	21.87014
833.073	22.50443
833.468	22.43118
833.863	22.57885
834.258	22.78446
834.653	22.73066
835.048	23.09407
835.442	23.3752
835.837	22.76277
836.231	23.05855
836.626	23.07199
837.02	22.88337
837.415	23.48023
837.809	22.94679
838.203	23.02593
838.597	22.93802
838.991	22.25354
839.385	22.32811
839.779	22.76102
840.173	22.36828
840.567	23.2239
840.961	23.27958
841.355	22.93458
841.748	23.12413
842.142	23.15463
842.536	23.0105
842.929	23.40123
843.323	23.72247
843.716	23.56888
844.109	23.81967
844.503	23.23172
844.896	23.74674
845.289	24.44569
845.682	23.36336
846.075	23.7772
846.468	23.33678
846.861	23.2726
847.254	24.14861
847.647	23.77736
848.04	24.0734
848.432	24.27611
848.825	23.72008
849.217	23.94497
849.61	24.13482
850.002	23.70834
850.395	23.93549
850.787	24.12294
851.179	23.50363
851.572	24.17249
851.964	24.22648
852.356	23.60097
852.748	23.11919
853.14	23.64735
853.532	23.75891
853.924	23.41836
854.315	23.70908
854.707	24.53518
855.099	23.55815
855.491	23.47429
855.882	23.76797
856.274	23.74294
856.665	24.29986
857.056	24.03977
857.448	24.24302
857.839	25.05459
858.23	23.76065
858.621	23.6301
859.012	23.94497
859.403	23.64518
859.794	23.0913
860.185	24.24189
860.576	24.13461
860.967	23.96947
861.358	23.78703
861.748	23.71645
862.139	24.2567
862.529	23.92432
862.92	23.55922
863.31	23.79088
863.701	23.70352
864.091	23.46145
864.481	24.28586
864.872	23.6436
865.262	23.28449
865.652	23.59182
866.042	23.15003
866.432	22.76147
866.822	24.27104
867.211	24.66033
867.601	23.14583
867.991	24.05714
868.381	23.69838
868.77	22.7259
869.16	23.51781
869.549	24.54523
869.939	23.3213
870.328	24.1891
870.717	23.37363
871.106	23.39665
871.496	23.71271
871.885	23.38489
872.274	23.71486
872.663	24.16017
873.052	24.23963
873.441	23.3176
873.829	23.24583
874.218	23.2403
874.607	23.14294
874.996	23.10289
875.384	23.78065
875.773	22.44259
876.161	22.52271
876.549	23.14316
876.938	23.25816
877.326	22.41019
877.714	23.13193
878.102	22.93137
878.491	22.66486
878.879	23.4804
879.267	22.33124
879.655	22.71701
880.042	23.63375
880.43	23.47861
880.818	23.19
881.206	23.65814
881.593	23.99988
881.981	23.58246
882.368	23.60232
882.756	23.90544
883.143	23.68465
883.53	23.46205
883.918	23.57967
884.305	23.31234
884.692	23.32643
885.079	23.4969
885.466	23.46557
885.853	23.54489
886.24	23.78913
886.627	23.3129
887.014	22.89274
887.4	23.4488
887.787	23.09375
888.174	22.9543
888.56	24.20407
888.947	23.78952
889.333	22.87416
889.719	23.57258
890.106	23.45954
890.492	22.78462
890.878	23.18823
891.264	23.52771
891.65	22.701
892.036	22.92667
892.422	23.20806
892.808	22.82057
893.194	22.52713
893.58	23.09654
893.965	23.06622
894.351	22.78076
894.736	22.95374
895.122	23.49139
895.507	23.01587
895.893	23.01604
896.278	23.20383
896.663	23.46621
897.049	22.55951
897.434	23.10388
897.819	23.26694
898.204	22.92636
898.589	23.48477
898.974	22.75976
899.359	22.65675
899.743	23.15189
900.128	22.72172
900.513	22.66104
900.897	22.86658
901.282	22.92742
901.667	22.79493
902.051	23.0599
902.435	22.85933
902.82	23.09533
903.204	22.08809
903.588	22.74379
903.972	22.54121
904.356	22.52822
904.74	22.46171
905.124	23.03734
905.508	23.15552
905.892	22.80885
906.276	23.29413
906.659	23.80819
907.043	22.99805
907.427	22.98329
907.81	22.75644
908.194	23.40402
908.577	23.53796
908.96	23.87324
909.344	22.99031
909.727	22.47343
910.11	23.46809
910.493	23.84577
910.876	22.77676
911.259	22.30744
911.642	22.89238
912.025	22.27883
912.408	22.3059
912.79	22.57598
913.173	22.05338
913.556	22.38766
913.938	22.74817
914.321	22.2682
914.703	21.67714
915.086	21.93582
915.468	22.84315
915.85	21.77597
916.232	22.25831
916.614	22.47407
916.996	22.82165
917.378	22.57135
917.76	22.65772
918.142	22.90279
918.524	23.13901
918.906	22.60068
919.288	22.24484
919.669	22.38251
920.051	22.12302
920.432	22.43316
920.814	22.46702
921.195	22.4199
921.577	22.01693
921.958	23.48128
922.339	22.65007
922.72	22.55044
923.101	22.24606
923.482	22.70777
923.863	22.52888
924.244	21.6449
924.625	22.7759
925.006	22.38098
925.387	22.94662
925.767	22.87094
926.148	22.32383
926.528	22.38781
926.909	22.3564
927.289	22.74335
927.67	23.67982
928.05	22.07927
928.43	23.18373
928.81	22.60526
929.191	22.8568
929.571	21.95104
929.951	22.78914
930.331	22.41697
930.71	21.54961
931.09	21.74336
931.47	22.85943
931.85	21.7864
932.229	22.37211
932.609	22.54496
932.988	21.86668
933.368	22.53961
933.747	21.14635
934.127	22.99666
934.506	23.09265
934.885	21.58927
935.264	22.07418
935.643	21.78131
936.022	21.43118
936.401	21.14135
936.78	22.67583
937.159	20.84381
937.538	21.65428
937.916	21.67117
938.295	22.0622
938.674	22.0986
939.052	21.97293
939.431	21.49742
939.809	21.65785
940.187	21.90053
940.566	21.75721
940.944	21.72581
941.322	21.86009
941.7	22.61144
942.078	22.9748
942.456	21.92573
942.834	21.21721
943.212	21.61532
943.59	22.69596
943.968	22.89681
944.345	22.11549
944.723	21.00469
945.1	20.82036
945.478	21.45692
945.855	20.70439
946.233	21.2814
946.61	21.81371
946.987	21.60693
947.365	20.83417
947.742	21.16409
948.119	22.29287
948.496	21.26831
948.873	21.38574
949.25	21.49443
949.626	21.75962
950.003	20.94637
950.38	19.94934
950.756	21.21528
951.133	20.54002
951.51	22.69412
951.886	21.85293
952.262	21.15487
952.639	20.60774
953.015	20.93422
953.391	20.33803
953.767	21.92576
954.143	20.62181
954.519	20.34098
954.895	22.41557
955.271	20.85888
955.647	21.44013
956.023	19.72298
956.399	21.1824
956.774	21.88327
957.15	20.63455
957.525	22.1637
957.901	21.24817
958.276	22.26293
958.652	19.71394
959.027	21.80599
959.402	20.24549
959.777	20.07498
960.152	22.36653
960.527	20.98487
960.902	20.26607
961.277	21.54508
961.652	20.92951
962.027	19.3779
962.402	20.24021
962.776	21.56182
963.151	20.11298
963.525	20.02249
963.9	21.26485
964.274	19.60216
964.649	20.8725
965.023	18.95891
965.397	19.88115
965.771	20.73084
966.146	20.6559
966.52	17.33263
966.894	18.91831
967.268	20.63396
967.641	15.92155
968.015	20.58046
968.389	20.80934
968.763	20.05137
969.136	18.93199
969.51	21.56069
969.883	20.97437
970.257	19.4014
970.63	19.86376
971.003	19.5732
971.377	20.95844
971.75	20.7039
972.123	21.91274
972.496	21.84489
972.869	20.81365
973.242	20.30907
973.615	18.00731
973.988	22.40924
974.36	20.37936
974.733	19.89572
975.106	21.50164
975.478	19.77923
975.851	20.5676
976.223	20.62714
976.596	19.51776
976.968	20.1639
977.34	19.94877
977.712	18.96139
978.085	18.62585
978.457	18.9522
978.829	20.52144
979.201	19.71515
979.573	19.59471
979.944	19.76085
980.316	19.31674
980.688	19.19651
981.059	21.05698
981.431	21.19624
981.803	19.28084
982.174	20.0429
982.545	18.83507
982.917	19.49843
983.288	21.83474
983.659	19.96995
984.03	20.86173
984.401	19.66397
984.772	17.82661
985.143	17.39891
985.514	18.64625
985.885	20.82545
986.256	18.71323
986.627	21.65208
986.997	20.74282
987.368	18.64713
987.738	18.70212
988.109	18.18142
988.479	18.65016
988.85	19.09259
989.22	19.1648
989.59	19.6127
989.96	19.62876
990.33	18.59986
990.7	19.48192
991.07	18.86376
991.44	18.15695
991.81	17.57636
992.18	17.18552
992.549	20.50256
992.919	18.26754
993.289	19.20833
993.658	18.54351
994.028	18.44479
994.397	18.78649
994.766	19.34256
995.136	16.87129
995.505	20.31084
995.874	19.24083
996.243	19.8042
996.612	20.52515
996.981	19.98489
997.35	19.78213
997.719	18.27126
998.088	21.29567
998.456	19.51039
998.825	18.79666
999.194	19.64789
999.562	22.22119
999.931	16.82403
1000.299	18.5511
1000.667	19.97807
1001.036	18.62889
1001.404	20.65964
1001.772	21.37267
1002.14	18.90912
1002.508	20.31944
1002.876	19.71731
1003.244	20.01832
1003.612	18.44394
1003.98	19.5808
1004.347	20.07526
1004.715	18.76973
1005.083	18.71474
1005.45	17.60253
1005.818	21.98445
1006.185	20.27392
1006.552	21.337
1006.92	18.8478
1007.287	18.34838
1007.654	17.31486
1008.021	20.71284
1008.388	20.18616
1008.755	14.67835
1009.122	19.38162
1009.489	18.93041
1009.856	22.02253
1010.222	19.40986
1010.589	18.48293
1010.956	20.83112
1011.322	19.98029
1011.689	20.1608
1012.055	20.1389
1012.421	21.24683
1012.788	18.8464
1013.154	22.5389
1013.52	18.6202
1013.886	14.77461
1014.252	19.39606
1014.618	20.51089
1014.984	21.53509
1015.35	15.86149
1015.716	18.5131
1016.081	21.46177
1016.447	21.54591
1016.813	21.88134
1017.178	24.49924
1017.544	19.97027
1017.909	20.01599
1018.274	23.17596
1018.64	20.37655
1019.005	15.01352
1019.37	22.84541
1019.735	18.83259
1020.1	15.26537
1020.465	24.36981
1020.83	23.83222
1021.195	21.70267
1021.56	23.47056
1021.924	26.61114
1022.289	24.85916
1022.654	19.57298
1023.018	11.82339
1023.383	20.50148
1023.747	7.78206
1024.111	17.35235
1024.476	19.32593
1024.84	20.88179
1025.204	25.91974
1025.568	23.20225
1025.932	20.54858
1026.296	28.81739
1026.66	26.32818
1027.024	23.19659
1027.387	15.64516
1027.751	16.35377
1028.115	27.07869
1028.478	24.41762
1028.842	23.93972
1029.205	28.1381
1029.569	21.95803
1029.932	26.86228
1030.295	16.21586
1030.659	24.73993
1031.022	15.04439
1031.385	27.47032
1031.748	23.43288
1032.111	22.29215
1032.474	18.48013
1032.836	23.04369
1033.199	20.88241
1033.562	21.36243
1033.924	29.54314
1034.287	16.85456
1034.65	18.83018
1035.012	25.42058
1035.374	23.68708
1035.737	31.04716
1036.099	26.95688
1036.461	26.24751
1036.823	24.45031
1037.185	29.70804
1037.547	25.80542
1037.909	29.8235
1038.271	18.74181
1038.633	24.91741
1038.995	17.57461
1039.356	5.45776
1039.718	33.68348
1040.08	26.3056
1040.441	30.9639
1040.803	42.89748
1041.164	38.7934
1041.525	24.03634
1041.886	27.06424
1042.248	27.69098
1042.609	25.43756
1042.97	24.69196
1043.331	16.98899
1043.692	9.57407
1044.053	11.64152
1044.413	28.87793
1044.774	14.06215
1045.135	25.69341
1045.495	24.08297
1045.856	29.31702
1046.216	23.28923
1046.577	30.37916
1046.937	4.56683
1047.298	25.70634
