Data from 1016water_Reflection__0__20-39-31-000.txt Node

Date: Thu Oct 16 20:39:31 AST 2025
User: lin
Spectrometer: SR600411
Trigger mode: 0
Integration Time (sec): 5.601500E-2
Scans to average: 5
Nonlinearity correction enabled: true
Boxcar width: 0
Storing dark spectrum: false
XAxis mode: Wavelengths
Number of Pixels in Spectrum: 2048
>>>>>Begin Spectral Data<<<<<
187.982	64.93533
188.456	48.27322
188.93	65.91391
189.403	57.80893
189.877	50.18022
190.351	63.74498
190.825	53.66307
191.298	55.58778
191.772	74.06483
192.246	58.9096
192.719	49.989
193.193	48.98009
193.666	48.92453
194.139	58.49037
194.613	51.45713
195.086	65.91392
195.559	57.02627
196.033	64.15985
196.506	59.86589
196.979	53.52456
197.452	65.70664
197.925	52.2576
198.398	59.92857
198.871	51.7148
199.344	63.44722
199.816	55.32469
200.289	60.41849
200.762	57.83956
201.235	53.57185
201.707	62.91736
202.18	57.54982
202.652	52.08755
203.125	42.74693
203.597	47.01242
204.07	60.10739
204.542	35.38519
205.014	38.3249
205.486	61.28158
205.959	39.0977
206.431	45.28578
206.903	73.64295
207.375	27.68715
207.847	39.4299
208.319	71.29191
208.791	36.42215
209.263	7.36714
209.734	49.99336
210.206	74.50596
210.678	55.99389
211.15	64.7005
211.621	25.18015
212.093	55.39816
212.564	55.55027
213.036	60.18005
213.507	45.25849
213.979	52.54798
214.45	30.76484
214.921	63.3877
215.392	44.13872
215.864	46.29097
216.335	78.3537
216.806	43.89644
217.277	117.58615
217.748	53.16838
218.219	35.71046
218.69	47.67465
219.161	63.32919
219.631	37.71399
220.102	64.82103
220.573	75.20214
221.043	48.95358
221.514	41.23246
221.985	51.51025
222.455	38.45544
222.926	25.71031
223.396	42.30266
223.866	52.45298
224.337	15.6836
224.807	66.35877
225.277	67.89774
225.747	27.20054
226.217	43.47266
226.687	47.00831
227.157	65.47243
227.627	33.32977
228.097	49.56685
228.567	21.35579
229.037	60.572
229.507	54.71177
229.977	23.96257
230.446	72.47275
230.916	26.78136
231.386	44.93946
231.855	60.49857
232.325	42.49418
232.794	50.40723
233.263	59.22454
233.733	49.6
234.202	37.77358
234.671	50.51065
235.14	30.76594
235.61	63.5539
236.079	-66.65675
236.548	60.91543
237.017	59.31639
237.486	24.16231
237.955	39.23677
238.424	61.53419
238.892	89.81286
239.361	30.43092
239.83	63.92885
240.299	62.68035
240.767	43.01908
241.236	50.95638
241.704	46.01214
242.173	21.24735
242.641	36.04258
243.109	51.64385
243.578	59.6983
244.046	68.8027
244.514	69.65919
244.982	29.995
245.451	67.60255
245.919	19.73445
246.387	84.4421
246.855	34.87985
247.323	58.26159
247.791	34.61189
248.258	45.53959
248.726	61.10772
249.194	47.31589
249.662	73.13172
250.129	60.52092
250.597	42.23577
251.064	50.97534
251.532	71.20676
251.999	52.62594
252.467	104.68812
252.934	29.24093
253.401	55.31455
253.869	45.67503
254.336	67.0551
254.803	72.44511
255.27	76.82637
255.737	16.46827
256.204	71.14961
256.671	53.75886
257.138	59.71879
257.605	75.46975
258.072	60.76309
258.539	35.91763
259.005	70.2672
259.472	58.13538
259.939	69.38363
260.405	72.54701
260.872	23.74713
261.338	42.85204
261.805	34.67185
262.271	40.97775
262.737	38.45666
263.203	43.29425
263.67	84.53357
264.136	59.76597
264.602	53.84231
265.068	69.76385
265.534	38.7709
266	81.62974
266.466	21.20884
266.932	67.43812
267.398	61.15133
267.864	30.46338
268.329	45.27781
268.795	46.21263
269.261	41.09239
269.726	73.60834
270.192	62.11505
270.657	31.89155
271.123	57.13742
271.588	51.0824
272.053	44.92415
272.519	55.11187
272.984	18.4596
273.449	78.33131
273.914	43.99512
274.379	26.25882
274.844	51.88154
275.309	6.5923
275.774	38.60911
276.239	57.13708
276.704	62.15698
277.169	71.42517
277.634	51.54159
278.098	76.76417
278.563	45.86619
279.028	35.29027
279.492	25.85766
279.957	30.67811
280.421	51.60983
280.886	53.46036
281.35	39.59917
281.814	58.92588
282.279	35.38167
282.743	57.96768
283.207	52.67304
283.671	26.22482
284.135	44.79387
284.599	71.84053
285.063	19.22757
285.527	41.76834
285.991	37.77358
286.455	56.46644
286.919	44.75676
287.382	59.82348
287.846	19.99683
288.31	43.20594
288.773	56.94094
289.237	31.07794
289.7	46.22119
290.164	54.80258
290.627	85.52445
291.09	39.59917
291.554	81.31594
292.017	62.62167
292.48	65.41576
292.943	31.42408
293.406	77.10553
293.869	44.82332
294.332	58.48546
294.795	18.5161
295.258	48.53859
295.721	60.18928
296.184	72.87904
296.646	20.5103
297.109	43.23964
297.572	70.23461
298.034	66.66376
298.497	52.9353
298.959	60.249
299.422	86.76316
299.884	62.61186
300.346	36.7776
300.809	31.34043
301.271	68.36314
301.733	88.23389
302.195	69.87606
302.657	60.41211
303.119	43.93617
303.581	45.05048
304.043	43.89843
304.505	48.4488
304.967	62.7616
305.429	38.79966
305.891	17.18569
306.352	31.88109
306.814	73.60834
307.275	67.79406
307.737	17.23974
308.198	66.40642
308.66	22.61613
309.121	42.25009
309.583	66.66336
310.044	5.79635
310.505	62.25921
310.966	61.7246
311.428	55.94828
311.889	48.61845
312.35	74.77831
312.811	32.55252
313.272	96.07805
313.733	73.68129
314.193	24.88064
314.654	78.49151
315.115	68.53552
315.576	32.09527
316.036	52.68358
316.497	26.57922
316.957	62.72217
317.418	62.22012
317.878	41.02003
318.339	58.22403
318.799	53.63094
319.259	1.61271
319.72	42.85374
320.18	49.10159
320.64	101.38909
321.1	40.90487
321.56	55.55071
322.02	63.45675
322.48	58.97062
322.94	39.07635
323.4	31.91084
323.86	66.06645
324.319	55.55203
324.779	95.31193
325.239	40.53523
325.698	64.93159
326.158	67.89773
326.617	89.06127
327.077	15.25272
327.536	68.74659
327.996	74.13572
328.455	45.87817
328.914	46.50738
329.373	51.99629
329.832	41.66204
330.292	120.2932
330.751	54.4265
331.21	49.49005
331.668	59.41699
332.127	7.69121
332.586	62.49777
333.045	51.54159
333.504	30.06964
333.962	36.53607
334.421	67.64411
334.88	39.34138
335.338	40.18182
335.797	59.99643
336.255	6.75583
336.714	73.07388
337.172	63.01971
337.63	-3.92116
338.088	77.46233
338.547	59.03217
339.005	33.73126
339.463	65.76081
339.921	57.77343
340.379	83.94845
340.837	53.25633
341.295	35.48106
341.753	71.91197
342.21	76.54033
342.668	37.80105
343.126	81.81591
343.584	3.60284
344.041	32.03439
344.499	47.70104
344.956	53.74606
345.414	47.30724
345.871	50.97534
346.328	70.88285
346.786	55.92644
347.243	57.72727
347.7	59.6983
348.157	67.58791
348.614	46.24606
349.071	42.54635
349.528	75.92201
349.985	37.0636
350.442	47.21689
350.899	56.51726
351.356	31.32176
351.812	66.66178
352.269	62.38025
352.726	55.5516
353.182	61.7246
353.639	68.46372
354.095	34.47886
354.552	48.10796
355.008	74.58558
355.465	57.42085
355.921	48.40646
356.377	55.33477
356.833	26.43343
357.289	43.47266
357.745	86.20484
358.201	55.31225
358.657	39.49016
359.113	18.5538
359.569	62.01794
360.025	40.2524
360.481	46.70858
360.937	54.00149
361.392	62.34503
361.848	62.71407
362.303	62.58934
362.759	68.64077
363.214	47.0179
363.67	72.84892
364.125	59.21834
364.581	44.47577
365.036	59.98908
365.491	55.5023
365.946	51.87108
366.401	54.60731
366.856	50.73428
367.311	52.31535
367.766	59.93117
368.221	48.90535
368.676	65.3296
369.131	51.074
369.586	52.43683
370.041	52.74532
370.495	53.21782
370.95	57.90204
371.404	52.78199
371.859	52.37481
372.313	54.38502
372.768	54.25326
373.222	54.61539
373.676	54.06382
374.131	52.88792
374.585	52.39932
375.039	53.45038
375.493	54.78804
375.947	54.30424
376.401	54.42982
376.855	55.47271
377.309	53.50856
377.763	53.42121
378.217	55.26895
378.67	52.58617
379.124	55.8319
379.578	54.48058
380.031	54.46286
380.485	54.67625
380.938	53.21013
381.392	53.39364
381.845	55.09622
382.299	54.2834
382.752	54.38802
383.205	53.44501
383.658	52.22863
384.111	52.15936
384.564	53.8497
385.018	54.60704
385.471	54.095
385.923	53.01609
386.376	53.43194
386.829	53.55068
387.282	55.91745
387.735	55.1481
388.187	54.8315
388.64	53.97371
389.093	55.04252
389.545	55.2176
389.998	54.64853
390.45	54.35853
390.902	53.62418
391.355	53.21677
391.807	55.40623
392.259	54.69653
392.711	56.06362
393.163	54.89879
393.615	55.22219
394.068	55.44322
394.519	55.23937
394.971	54.68678
395.423	54.57271
395.875	54.49797
396.327	54.78622
396.779	55.56393
397.23	55.81563
397.682	55.28819
398.133	54.55166
398.585	54.81084
399.036	54.91765
399.488	54.54774
399.939	54.54106
400.39	54.33333
400.842	54.62062
401.293	53.86916
401.744	53.58107
402.195	53.91506
402.646	53.95627
403.097	53.31281
403.548	53.86677
403.999	53.37576
404.45	54.09251
404.9	53.3053
405.351	53.16267
405.802	52.88935
406.253	53.15974
406.703	52.57009
407.154	52.72089
407.604	52.64385
408.055	52.42797
408.505	52.61256
408.955	52.55167
409.406	51.96312
409.856	51.93696
410.306	51.67318
410.756	52.11029
411.206	51.53211
411.656	51.47829
412.106	51.27686
412.556	50.76735
413.006	51.29684
413.456	50.42774
413.905	50.57048
414.355	50.75597
414.805	50.12719
415.254	50.18895
415.704	50.45183
416.153	50.11148
416.603	49.05146
417.052	49.74195
417.502	49.59117
417.951	49.5084
418.4	49.03718
418.849	49.15187
419.298	49.12143
419.748	48.73407
420.197	48.70204
420.646	48.21011
421.094	48.05125
421.543	48.26144
421.992	48.23968
422.441	47.21323
422.89	47.63191
423.338	47.60818
423.787	47.71231
424.236	47.3751
424.684	46.99947
425.133	46.58719
425.581	47.33848
426.029	46.72268
426.478	46.19444
426.926	46.84446
427.374	46.70646
427.822	46.38212
428.27	46.17285
428.718	45.94403
429.166	46.11186
429.614	45.60142
430.062	46.05017
430.51	46.16061
430.958	46.10777
431.406	45.62246
431.853	46.34978
432.301	45.8742
432.749	45.97614
433.196	44.97934
433.644	44.96461
434.091	45.08384
434.538	44.89114
434.986	44.72607
435.433	45.31203
435.88	44.63644
436.327	44.81625
436.775	44.76017
437.222	44.68407
437.669	44.86172
438.116	44.41044
438.563	44.02472
439.009	44.83019
439.456	44.46316
439.903	44.80311
440.35	44.39011
440.796	44.28395
441.243	44.48024
441.689	44.22995
442.136	44.4737
442.582	44.02264
443.029	44.50057
443.475	44.38084
443.921	44.35314
444.368	44.33354
444.814	44.11186
445.26	43.75691
445.706	44.4541
446.152	44.5448
446.598	44.44367
447.044	44.36233
447.49	44.34992
447.936	43.95836
448.381	44.13515
448.827	43.99653
449.273	43.99266
449.718	44.28574
450.164	44.63717
450.61	44.36062
451.055	44.22696
451.5	44.45109
451.946	44.30695
452.391	44.87396
452.836	44.83752
453.282	44.54904
453.727	44.78843
454.172	44.75778
454.617	44.87718
455.062	44.57445
455.507	45.07499
455.952	45.00795
456.396	44.71615
456.841	45.09532
457.286	45.3
457.731	45.10047
458.175	45.01548
458.62	45.24756
459.064	45.3658
459.509	45.36936
459.953	44.83367
460.398	45.37041
460.842	45.78591
461.286	45.4129
461.73	45.69746
462.174	45.93689
462.619	45.7003
463.063	46.50239
463.507	45.96839
463.951	46.36673
464.394	46.30114
464.838	46.27192
465.282	46.02691
465.726	46.42686
466.17	46.54589
466.613	46.48458
467.057	46.52432
467.5	46.97612
467.944	46.8788
468.387	47.28399
468.831	47.23682
469.274	47.51228
469.717	47.71752
470.16	48.44481
470.603	48.52982
471.047	48.48105
471.49	48.96576
471.933	48.93559
472.376	48.78851
472.818	49.05583
473.261	49.09919
473.704	49.2166
474.147	49.67835
474.59	49.52488
475.032	49.73286
475.475	49.77706
475.917	50.35182
476.36	50.33676
476.802	50.33937
477.245	50.75215
477.687	51.11685
478.129	51.13464
478.571	51.81048
479.013	51.91026
479.456	51.99176
479.898	52.24139
480.34	52.35823
480.782	52.34492
481.224	52.67704
481.665	52.24378
482.107	52.60638
482.549	52.35039
482.991	52.56486
483.432	53.00705
483.874	53.19563
484.315	53.21332
484.757	52.95838
485.198	53.68985
485.64	53.54436
486.081	53.79591
486.522	54.31404
486.963	54.54581
487.405	54.28734
487.846	54.60668
488.287	54.7533
488.728	54.42491
489.169	55.05984
489.61	54.78536
490.05	55.27602
490.491	55.80811
490.932	55.23598
491.373	55.06823
491.813	55.81386
492.254	55.47943
492.694	55.7753
493.135	55.88068
493.575	55.67416
494.016	55.8476
494.456	55.79198
494.896	55.61721
495.336	56.1052
495.777	56.69281
496.217	56.19701
496.657	56.01912
497.097	56.20147
497.537	56.1106
497.977	56.25878
498.416	56.59015
498.856	56.81324
499.296	56.94577
499.736	56.77711
500.175	56.52777
500.615	57.27464
501.054	57.08056
501.494	56.9232
501.933	57.04342
502.373	57.18493
502.812	57.92944
503.251	57.68122
503.69	58.03858
504.129	58.29556
504.569	58.45842
505.008	58.55558
505.447	58.55697
505.886	58.80702
506.324	58.69393
506.763	59.00501
507.202	58.62342
507.641	59.66677
508.079	59.76157
508.518	60.10297
508.957	60.02763
509.395	59.61858
509.834	60.70563
510.272	61.0371
510.71	60.58043
511.149	60.8593
511.587	61.7004
512.025	61.43803
512.463	61.14077
512.901	61.43952
513.339	61.7339
513.777	63.1187
514.215	62.40453
514.653	61.9903
515.091	63.21094
515.529	63.16697
515.966	62.78659
516.404	63.46444
516.842	63.43934
517.279	63.50909
517.717	63.56822
518.154	64.30506
518.592	64.1865
519.029	64.67925
519.466	64.54834
519.904	64.94887
520.341	65.27018
520.778	65.42845
521.215	65.67459
521.652	65.98946
522.089	65.78534
522.526	66.08165
522.963	65.94549
523.399	66.33713
523.836	67.27195
524.273	66.97455
524.71	67.59855
525.146	67.85593
525.583	67.22937
526.019	67.64715
526.456	67.9067
526.892	68.06775
527.328	68.42834
527.765	68.591
528.201	68.68442
528.637	69.21362
529.073	69.21564
529.509	69.30678
529.945	69.80452
530.381	69.71989
530.817	69.86317
531.253	69.87857
531.689	69.97914
532.124	70.58176
532.56	70.79531
532.996	70.55307
533.431	71.23288
533.867	71.37817
534.302	71.22895
534.738	71.7237
535.173	71.90865
535.608	72.28284
536.044	72.54656
536.479	71.87288
536.914	72.30578
537.349	71.90838
537.784	72.24684
538.219	72.5552
538.654	72.45462
539.089	72.36194
539.524	72.2762
539.959	72.34772
540.393	72.67647
540.828	72.97514
541.263	72.8041
541.697	72.6032
542.132	72.39311
542.566	72.41328
543.001	72.89039
543.435	73.10211
543.869	73.16712
544.303	73.0847
544.738	72.84255
545.172	72.48236
545.606	72.36592
546.04	72.97476
546.474	73.15044
546.908	72.92264
547.342	72.49233
547.775	72.78257
548.209	72.16954
548.643	72.81868
549.077	72.99263
549.51	72.25516
549.944	72.07395
550.377	71.55926
550.811	72.05784
551.244	71.06345
551.677	71.33176
552.111	71.36014
552.544	70.95013
552.977	70.2076
553.41	70.64813
553.843	70.65741
554.276	70.21525
554.709	69.36961
555.142	69.83759
555.575	69.25024
556.008	69.88406
556.44	68.84108
556.873	69.16934
557.306	69.0988
557.738	68.54042
558.171	68.75801
558.603	67.93753
559.036	67.96892
559.468	67.28891
559.9	67.52781
560.333	67.10502
560.765	67.72146
561.197	66.81775
561.629	66.39646
562.061	66.58978
562.493	66.51155
562.925	66.31072
563.357	65.95759
563.789	66.05521
564.22	65.58918
564.652	65.6363
565.084	65.36549
565.515	65.41463
565.947	64.8348
566.378	64.69891
566.81	65.26135
567.241	64.21751
567.672	64.51467
568.104	64.33595
568.535	64.05716
568.966	63.78301
569.397	63.46948
569.828	63.55858
570.259	62.6308
570.69	62.31172
571.121	62.4666
571.552	61.87354
571.983	62.38008
572.414	61.76468
572.844	61.70512
573.275	61.80163
573.705	61.21182
574.136	60.93394
574.566	61.13693
574.997	61.05165
575.427	60.58397
575.857	60.88586
576.288	60.46797
576.718	60.8815
577.148	60.40585
577.578	60.21623
578.008	59.93187
578.438	60.0983
578.868	59.74401
579.298	59.20272
579.728	59.38402
580.157	58.98287
580.587	58.64391
581.017	58.72422
581.446	58.10433
581.876	57.87947
582.305	57.94357
582.735	57.77494
583.164	57.74965
583.593	56.8734
584.023	57.15212
584.452	57.21007
584.881	56.84929
585.31	57.18361
585.739	57.07114
586.168	56.61246
586.597	56.42067
587.026	56.25115
587.455	55.99817
587.884	56.05658
588.312	55.89284
588.741	55.52013
589.17	55.22248
589.598	55.16108
590.027	55.30716
590.455	54.54727
590.884	54.68944
591.312	54.50717
591.74	54.39339
592.168	54.38513
592.597	54.33257
593.025	53.80243
593.453	54.06786
593.881	54.1513
594.309	53.46654
594.737	53.45404
595.165	53.24271
595.592	53.29509
596.02	53.12831
596.448	53.19032
596.875	52.99894
597.303	52.40381
597.73	52.47382
598.158	52.71044
598.585	52.78005
599.013	52.15516
599.44	51.96398
599.867	51.78113
600.294	51.58504
600.722	51.41724
601.149	51.31549
601.576	51.63301
602.003	51.36904
602.43	50.99922
602.856	51.12226
603.283	51.07948
603.71	51.20758
604.137	51.08212
604.563	51.08067
604.99	51.22805
605.416	50.89372
605.843	50.32931
606.269	50.46398
606.696	50.39178
607.122	50.49498
607.548	50.07996
607.975	50.09415
608.401	49.71788
608.827	49.82868
609.253	49.70897
609.679	49.68535
610.105	49.6279
610.531	49.99161
610.956	49.7681
611.382	49.78379
611.808	49.69161
612.234	49.11375
612.659	49.51499
613.085	48.9948
613.51	49.27231
613.936	49.22541
614.361	49.47204
614.786	49.14683
615.212	49.14736
615.637	49.34959
616.062	48.69328
616.487	49.0175
616.912	49.16809
617.337	48.74586
617.762	49.10555
618.187	48.77385
618.612	48.98176
619.037	48.74584
619.461	48.91226
619.886	48.94676
620.311	48.86595
620.735	48.57138
621.16	48.63895
621.584	48.63164
622.008	48.9943
622.433	48.92361
622.857	48.36329
623.281	48.33698
623.705	48.43568
624.13	48.39779
624.554	48.19611
624.978	48.3987
625.402	48.0327
625.826	48.32208
626.249	48.1237
626.673	47.88235
627.097	47.86869
627.521	47.97349
627.944	48.11811
628.368	47.89155
628.791	48.33102
629.215	48.05637
629.638	48.14378
630.061	48.19576
630.485	48.33711
630.908	48.63736
631.331	48.78328
631.754	48.75978
632.177	48.95569
632.6	49.07117
633.023	48.88232
633.446	49.0238
633.869	49.10051
634.292	49.31657
634.715	49.74669
635.137	49.58233
635.56	49.53244
635.982	50.04416
636.405	50.1157
636.827	49.81819
637.25	49.91569
637.672	49.9123
638.094	49.83264
638.517	49.63722
638.939	50.03696
639.361	50.05467
639.783	50.56354
640.205	50.93822
640.627	50.12341
641.049	50.51015
641.471	50.53113
641.893	50.39385
642.314	51.06967
642.736	50.73639
643.158	50.48873
643.579	50.71986
644.001	50.76859
644.422	51.27566
644.844	51.72486
645.265	51.71003
645.686	51.17059
646.107	51.6676
646.529	51.1528
646.95	51.60692
647.371	51.88826
647.792	51.84214
648.213	52.03478
648.634	52.46884
649.055	52.67804
649.475	52.93073
649.896	52.95266
650.317	52.53563
650.737	53.09147
651.158	53.35536
651.578	53.26551
651.999	53.55718
652.419	52.89505
652.84	53.3553
653.26	53.40537
653.68	53.37673
654.1	53.82136
654.521	53.6548
654.941	53.89114
655.361	53.63438
655.781	54.03903
656.2	54.51209
656.62	54.18462
657.04	54.31168
657.46	54.26131
657.879	54.65542
658.299	54.81299
658.719	54.5139
659.138	55.03016
659.558	54.66093
659.977	55.53467
660.396	55.22482
660.816	55.69357
661.235	55.77756
661.654	55.36687
662.073	55.34756
662.492	55.18258
662.911	55.60909
663.33	56.05275
663.749	55.8507
664.168	56.55752
664.587	56.86638
665.006	56.95662
665.424	57.05193
665.843	56.46222
666.261	56.81947
666.68	56.87518
667.098	57.02249
667.517	57.28104
667.935	56.85447
668.353	56.6144
668.772	56.84289
669.19	56.77192
669.608	57.12796
670.026	56.64151
670.444	57.0088
670.862	56.48632
671.28	56.60161
671.698	57.05204
672.115	56.31902
672.533	55.67849
672.951	56.5852
673.368	56.76861
673.786	56.97572
674.203	56.0612
674.621	56.79585
675.038	56.0357
675.456	56.59992
675.873	56.36708
676.29	55.96684
676.707	56.5804
677.124	55.60888
677.541	56.28512
677.958	56.34945
678.375	56.49461
678.792	56.0838
679.209	55.89222
679.626	56.32343
680.043	56.12254
680.459	55.66763
680.876	55.78255
681.292	55.3099
681.709	55.29583
682.125	54.67691
682.542	55.00524
682.958	54.97919
683.374	54.84834
683.79	54.75681
684.207	54.47191
684.623	54.23474
685.039	53.9714
685.455	54.12218
685.871	53.40722
686.286	53.76507
686.702	53.18916
687.118	53.11693
687.534	52.86572
687.949	53.21621
688.365	52.78051
688.781	52.51705
689.196	52.65196
689.611	51.72891
690.027	52.02108
690.442	51.76193
690.857	51.40208
691.273	51.6311
691.688	50.98264
692.103	51.12015
692.518	50.52257
692.933	51.21047
693.348	50.57201
693.763	50.5797
694.177	50.20189
694.592	50.22426
695.007	50.07639
695.421	49.43761
695.836	49.18928
696.25	48.87686
696.665	49.51642
697.079	48.88104
697.494	48.87753
697.908	48.52058
698.322	48.2309
698.736	48.17707
699.151	47.83259
699.565	47.59407
699.979	47.33052
700.393	47.25941
700.806	46.536
701.22	47.2446
701.634	46.30763
702.048	46.09805
702.461	45.65181
702.875	45.98719
703.289	45.2013
703.702	45.50983
704.116	45.55589
704.529	44.38786
704.942	44.79203
705.356	44.50894
705.769	43.7067
706.182	43.35111
706.595	43.72083
707.008	43.35135
707.421	43.57618
707.834	43.1268
708.247	43.0538
708.66	42.17944
709.072	42.69691
709.485	41.91696
709.898	42.26412
710.31	41.61632
710.723	42.04714
711.135	41.35537
711.548	41.21663
711.96	40.58634
712.373	40.75363
712.785	40.26031
713.197	40.24928
713.609	39.86005
714.021	39.22315
714.433	39.27944
714.845	39.0447
715.257	38.70922
715.669	38.30126
716.081	38.32366
716.493	37.82422
716.904	38.06018
717.316	37.39071
717.727	37.81368
718.139	37.2399
718.55	37.71321
718.962	37.13234
719.373	37.26292
719.784	36.36521
720.196	36.14726
720.607	36.00021
721.018	35.95295
721.429	35.19522
721.84	35.49816
722.251	34.85817
722.662	35.4446
723.073	34.85466
723.483	34.59223
723.894	34.24568
724.305	34.17916
724.715	33.55618
725.126	33.9898
725.536	33.62013
725.947	33.49991
726.357	32.75678
726.768	33.30459
727.178	32.4893
727.588	32.83274
727.998	32.35405
728.408	32.29644
728.818	31.75618
729.228	32.35053
729.638	31.86456
730.048	31.85334
730.458	31.63996
730.868	31.27145
731.277	30.88555
731.687	30.93304
732.097	30.70227
732.506	30.68057
732.916	30.31648
733.325	30.38007
733.734	30.25666
734.144	29.99549
734.553	29.73509
734.962	29.86199
735.371	29.72101
735.78	29.45022
736.189	29.3238
736.598	29.00278
737.007	28.80879
737.416	28.09808
737.825	28.5898
738.233	28.47392
738.642	28.51116
739.051	27.76408
739.459	28.00752
739.868	27.42404
740.276	27.73724
740.684	27.11914
741.093	27.57226
741.501	26.7995
741.909	27.11516
742.317	27.27206
742.725	27.02872
743.133	26.65028
743.541	26.66317
743.949	26.77151
744.357	26.59827
744.765	26.62963
745.173	26.3946
745.58	26.43202
745.988	26.1561
746.396	26.30692
746.803	25.79647
747.211	26.20695
747.618	25.5918
748.025	25.70076
748.433	25.73991
748.84	25.62852
749.247	25.47744
749.654	25.26838
750.061	25.62783
750.468	24.98339
750.875	25.17549
751.282	24.94706
751.689	25.19789
752.096	24.52051
752.502	24.89826
752.909	24.39962
753.316	24.73302
753.722	24.14228
754.129	24.42306
754.535	24.41225
754.941	24.57419
755.348	24.39059
755.754	23.88248
756.16	24.38571
756.566	23.83687
756.972	24.25365
757.378	23.62575
757.784	24.10888
758.19	23.50782
758.596	23.69885
759.002	23.61991
759.408	23.53213
759.813	24.21702
760.219	23.70543
760.624	23.93593
761.03	23.03195
761.435	23.62019
761.841	22.74045
762.246	23.11198
762.651	23.11917
763.057	22.99562
763.462	23.40764
763.867	23.36421
764.272	24.22732
764.677	23.59111
765.082	23.95707
765.487	23.5449
765.892	23.60204
766.296	23.42415
766.701	23.17843
767.106	23.40569
767.51	22.90178
767.915	23.17636
768.319	22.35445
768.724	23.11978
769.128	22.49424
769.532	22.54225
769.936	22.71234
770.341	22.23883
770.745	23.0496
771.149	22.78812
771.553	23.08383
771.957	22.84663
772.361	22.91024
772.764	22.57426
773.168	22.36352
773.572	22.58519
773.976	22.18177
774.379	22.77903
774.783	22.55434
775.186	22.24522
775.59	22.09603
775.993	22.53078
776.396	22.67564
776.8	21.99883
777.203	22.71334
777.606	22.29807
778.009	22.20949
778.412	22.38375
778.815	22.02643
779.218	22.28885
779.621	22.17617
780.023	22.59137
780.426	22.21762
780.829	22.72032
781.231	22.7111
781.634	22.52378
782.036	22.60749
782.439	22.07759
782.841	22.86626
783.244	22.3127
783.646	22.57892
784.048	23.05491
784.45	22.34345
784.852	22.90094
785.254	22.489
785.656	22.54999
786.058	22.53067
786.46	22.29319
786.862	22.42026
787.264	22.13371
787.665	22.53541
788.067	22.4853
788.468	22.33691
788.87	22.46153
789.271	22.64262
789.673	22.84491
790.074	22.39337
790.475	22.09819
790.877	22.78371
791.278	22.1482
791.679	22.62088
792.08	22.20967
792.481	22.29747
792.882	23.05411
793.283	22.69659
793.683	22.53741
794.084	22.43341
794.485	22.5966
794.886	22.59969
795.286	21.94599
795.687	22.49975
796.087	22.49829
796.487	22.79326
796.888	22.11962
797.288	21.79674
797.688	22.18666
798.088	22.10225
798.489	22.76342
798.889	22.43487
799.289	22.52386
799.689	22.72176
800.088	22.5183
800.488	22.8688
800.888	22.53919
801.288	22.49011
801.687	23.02359
802.087	22.23279
802.486	22.67488
802.886	22.50405
803.285	22.07293
803.685	23.24162
804.084	22.25469
804.483	22.44409
804.882	22.49949
805.281	22.36887
805.68	22.68443
806.079	22.58585
806.478	22.51285
806.877	22.61968
807.276	22.73692
807.675	22.82659
808.074	22.43457
808.472	22.50339
808.871	22.73874
809.269	22.59573
809.668	23.15457
810.066	22.85569
810.465	22.5439
810.863	23.28461
811.261	22.65981
811.659	23.16043
812.057	22.86819
812.455	22.5235
812.853	23.18152
813.251	22.86223
813.649	22.92784
814.047	22.90949
814.445	22.42767
814.843	23.15149
815.24	22.94021
815.638	22.71671
816.035	23.03285
816.433	22.42145
816.83	22.56591
817.228	22.71961
817.625	22.65527
818.022	22.9365
818.419	22.75184
818.816	22.84783
819.213	22.91793
819.61	22.32951
820.007	23.09295
820.404	22.89133
820.801	22.8986
821.198	23.51173
821.595	22.92006
821.991	23.17567
822.388	23.84887
822.784	23.5519
823.181	24.14505
823.577	24.24123
823.974	24.34945
824.37	24.51459
824.766	23.9612
825.162	23.94337
825.558	23.90485
825.954	23.45179
826.35	23.77306
826.746	23.8499
827.142	23.93555
827.538	24.29429
827.934	24.0349
828.33	23.65373
828.725	24.38284
829.121	23.90469
829.516	23.71778
829.912	23.97566
830.307	23.1433
830.703	23.90633
831.098	23.05437
831.493	23.08165
831.888	23.48485
832.283	23.09465
832.678	22.82404
833.073	23.43822
833.468	23.07304
833.863	23.70084
834.258	23.98617
834.653	23.75617
835.048	23.95609
835.442	24.07862
835.837	23.75632
836.231	24.05126
836.626	23.82651
837.02	23.82999
837.415	24.09702
837.809	24.32763
838.203	23.93512
838.597	23.91445
838.991	22.7957
839.385	23.90916
839.779	23.5112
840.173	23.39991
840.567	24.09832
840.961	24.41373
841.355	23.85028
841.748	24.39735
842.142	24.30595
842.536	24.49336
842.929	24.78525
843.323	23.98187
843.716	24.32607
844.109	24.62889
844.503	24.11571
844.896	24.70405
845.289	24.93919
845.682	24.26125
846.075	25.05383
846.468	24.52417
846.861	24.45491
847.254	24.8853
847.647	24.87342
848.04	25.17164
848.432	25.13136
848.825	24.02612
849.217	24.56212
849.61	24.82233
850.002	24.37825
850.395	24.94865
850.787	24.57655
851.179	24.02365
851.572	24.84882
851.964	25.17071
852.356	24.13362
852.748	24.98311
853.14	24.64069
853.532	24.1472
853.924	24.55898
854.315	24.9371
854.707	24.49587
855.099	24.91375
855.491	24.6787
855.882	24.40877
856.274	24.79282
856.665	25.11647
857.056	24.44509
857.448	25.50703
857.839	24.58488
858.23	23.75297
858.621	25.37258
859.012	24.70371
859.403	24.52918
859.794	24.16772
860.185	24.61522
860.576	24.01953
860.967	25.09978
861.358	24.93745
861.748	24.66591
862.139	25.0629
862.529	24.46694
862.92	24.78557
863.31	24.71386
863.701	24.88872
864.091	24.77677
864.481	24.69086
864.872	25.09399
865.262	24.34175
865.652	24.42393
866.042	24.56587
866.432	24.12878
866.822	25.09646
867.211	24.7236
867.601	24.45865
867.991	24.97852
868.381	24.20287
868.77	24.53913
869.16	24.70494
869.549	25.02959
869.939	24.6611
870.328	24.42038
870.717	24.5949
871.106	24.34687
871.496	24.76068
871.885	24.64823
872.274	24.08586
872.663	24.69361
873.052	24.87618
873.441	23.9892
873.829	24.40073
874.218	24.11416
874.607	24.19368
874.996	24.40458
875.384	24.83348
875.773	23.43036
876.161	23.99463
876.549	23.91633
876.938	23.49883
877.326	23.52048
877.714	23.5991
878.102	23.08369
878.491	23.61624
878.879	23.51182
879.267	23.11637
879.655	23.87137
880.042	24.50845
880.43	24.04597
880.818	24.15535
881.206	24.80842
881.593	24.38886
881.981	24.26725
882.368	25.00045
882.756	24.46364
883.143	24.82527
883.53	24.52134
883.918	24.53431
884.305	24.03839
884.692	24.53559
885.079	24.41234
885.466	23.87749
885.853	24.26364
886.24	24.11317
886.627	23.42066
887.014	23.74437
887.4	24.24363
887.787	23.56172
888.174	23.79436
888.56	24.96146
888.947	24.34011
889.333	23.69794
889.719	24.08926
890.106	23.676
890.492	23.66704
890.878	24.12217
891.264	23.70845
891.65	23.54148
892.036	23.74387
892.422	24.17038
892.808	23.09431
893.194	23.82791
893.58	23.72929
893.965	23.76202
894.351	23.36277
894.736	24.26204
895.122	24.08911
895.507	23.49994
895.893	24.26458
896.278	23.77001
896.663	23.75448
897.049	23.46399
897.434	23.92156
897.819	24.04892
898.204	24.04071
898.589	24.22028
898.974	23.85465
899.359	23.47254
899.743	23.30622
900.128	23.27097
900.513	23.837
900.897	23.63324
901.282	23.49047
901.667	23.41247
902.051	23.51705
902.435	23.54199
902.82	22.85816
903.204	22.86177
903.588	23.74012
903.972	23.13894
904.356	23.51431
904.74	23.90303
905.124	24.05316
905.508	23.74321
905.892	23.69449
906.276	24.24077
906.659	23.73239
907.043	23.99123
907.427	23.64131
907.81	23.9122
908.194	23.92089
908.577	24.53178
908.96	23.86707
909.344	23.51307
909.727	23.42204
910.11	25.0202
910.493	23.7272
910.876	23.61665
911.259	23.88619
911.642	24.44021
912.025	23.05865
912.408	23.25619
912.79	22.85911
913.173	22.77506
913.556	22.99054
913.938	23.75389
914.321	23.09735
914.703	22.73378
915.086	23.02448
915.468	23.09386
915.85	23.16445
916.232	22.86738
916.614	23.94283
916.996	23.66881
917.378	23.23741
917.76	22.99908
918.142	22.96718
918.524	23.33161
918.906	23.38493
919.288	23.13132
919.669	22.89002
920.051	22.55272
920.432	23.26156
920.814	23.73339
921.195	23.22052
921.577	23.34054
921.958	24.91916
922.339	23.13631
922.72	24.14647
923.101	23.096
923.482	24.37647
923.863	23.42299
924.244	23.60771
924.625	23.68142
925.006	23.40218
925.387	22.69337
925.767	23.85006
926.148	22.57481
926.528	23.33108
926.909	23.53859
927.289	23.99295
927.67	24.22478
928.05	23.20946
928.43	24.36246
928.81	24.04626
929.191	22.26555
929.571	23.62346
929.951	22.22365
930.331	23.84093
930.71	23.37162
931.09	22.69235
931.47	23.14884
931.85	22.59924
932.229	23.14482
932.609	22.85129
932.988	23.87331
933.368	23.01685
933.747	22.88227
934.127	23.78605
934.506	22.81976
934.885	21.5687
935.264	22.79625
935.643	22.19742
936.022	22.31318
936.401	21.70825
936.78	23.00973
937.159	22.36062
937.538	21.49913
937.916	22.92702
938.295	22.45249
938.674	22.46592
939.052	22.10013
939.431	23.22495
939.809	23.77698
940.187	21.87215
940.566	22.68316
940.944	21.47932
941.322	23.70581
941.7	22.1092
942.078	23.85151
942.456	23.0422
942.834	21.90044
943.212	22.29296
943.59	23.56546
943.968	21.30044
944.345	21.00635
944.723	21.15451
945.1	21.59525
945.478	23.25075
945.855	21.46602
946.233	22.72818
946.61	24.31314
946.987	22.27175
947.365	20.90436
947.742	22.12919
948.119	22.54215
948.496	21.72115
948.873	21.65603
949.25	22.46796
949.626	22.48956
950.003	20.91305
950.38	22.15598
950.756	21.64368
951.133	21.37068
951.51	20.41626
951.886	22.36787
952.262	23.89965
952.639	20.36927
953.015	22.17178
953.391	20.6996
953.767	21.19504
954.143	22.55803
954.519	22.15703
954.895	21.35553
955.271	23.18065
955.647	21.15758
956.023	21.28108
956.399	21.732
956.774	21.68858
957.15	20.49126
957.525	21.6646
957.901	21.45973
958.276	21.26663
958.652	21.47069
959.027	24.06498
959.402	21.4494
959.777	20.5733
960.152	21.49991
960.527	19.02331
960.902	20.12517
961.277	22.09643
961.652	22.96203
962.027	19.97751
962.402	21.79901
962.776	21.56182
963.151	20.94335
963.525	20.91956
963.9	21.12548
964.274	21.15154
964.649	20.37097
965.023	19.44229
965.397	19.26423
965.771	22.15052
966.146	23.79015
966.52	19.07104
966.894	19.38747
967.268	20.54439
967.641	19.47702
968.015	22.19648
968.389	21.77674
968.763	19.25265
969.136	19.35683
969.51	22.18076
969.883	20.8945
970.257	19.84417
970.63	20.63485
971.003	20.10712
971.377	20.98391
971.75	19.71049
972.123	21.78558
972.496	20.92285
972.869	21.98018
973.242	22.94915
973.615	18.00731
973.988	22.03893
974.36	19.17073
974.733	20.80663
975.106	20.93042
975.478	19.64736
975.851	20.35851
976.223	22.19213
976.596	20.09797
976.968	20.97385
977.34	20.89738
977.712	20.77032
978.085	19.97275
978.457	20.2784
978.829	20.20924
979.201	19.85947
979.573	19.39289
979.944	19.18979
980.316	20.91786
980.688	19.69768
981.059	20.46849
981.431	21.56143
981.803	20.46675
982.174	21.22776
982.545	21.01161
982.917	20.2706
983.288	20.69391
983.659	20.70103
984.03	18.84346
984.401	19.21584
984.772	20.03994
985.143	19.66631
985.514	20.26371
985.885	19.91755
986.256	19.9718
986.627	20.66772
986.997	21.16517
987.368	17.99336
987.738	21.04676
988.109	19.29067
988.479	19.01773
988.85	19.95657
989.22	19.83957
989.59	19.51682
989.96	20.25988
990.33	18.85905
990.7	19.19518
991.07	20.24005
991.44	18.87791
991.81	18.07628
992.18	19.52693
992.549	19.30008
992.919	19.7539
993.289	18.82807
993.658	19.68758
994.028	19.36796
994.397	18.53374
994.766	18.74921
995.136	18.5166
995.505	18.94034
995.874	19.86576
996.243	18.60158
996.612	20.06003
996.981	18.88595
997.35	21.24545
997.719	16.86451
998.088	19.17914
998.456	19.63245
998.825	20.37911
999.194	18.75597
999.562	20.75678
999.931	20.47624
1000.299	19.48452
1000.667	22.26611
1001.036	20.01175
1001.404	21.18045
1001.772	20.01899
1002.14	21.2745
1002.508	19.92297
1002.876	20.40361
1003.244	20.72533
1003.612	21.65378
1003.98	19.99517
1004.347	20.69912
1004.715	20.65436
1005.083	18.58003
1005.45	25.30573
1005.818	18.38264
1006.185	20.54084
1006.552	22.91095
1006.92	19.5994
1007.287	18.7753
1007.654	19.78032
1008.021	20.17101
1008.388	21.68
1008.755	19.63929
1009.122	16.33352
1009.489	22.01107
1009.856	24.40855
1010.222	17.15638
1010.589	18.03188
1010.956	22.33878
1011.322	16.98176
1011.689	20.1608
1012.055	19.80748
1012.421	21.87831
1012.788	20.41188
1013.154	20.37449
1013.52	19.08208
1013.886	13.07226
1014.252	19.09166
1014.618	24.8741
1014.984	21.29657
1015.35	13.75767
1015.716	21.05527
1016.081	24.75853
1016.447	20.43099
1016.813	22.82903
1017.178	20.15594
1017.544	24.49193
1017.909	23.33493
1018.274	22.85542
1018.64	24.64315
1019.005	18.15684
1019.37	24.16164
1019.735	17.92319
1020.1	18.37106
1020.465	20.21767
1020.83	16.83791
1021.195	22.91626
1021.56	21.81511
1021.924	28.69325
1022.289	21.26222
1022.654	24.33992
1023.018	16.10802
1023.383	24.08215
1023.747	14.11726
1024.111	16.4758
1024.476	17.94522
1024.84	22.2482
1025.204	24.41676
1025.568	18.52346
1025.932	25.58626
1026.296	23.3894
1026.66	16.95218
1027.024	21.41186
1027.387	16.27106
1027.751	16.1543
1028.115	17.62111
1028.478	25.64906
1028.842	14.49438
1029.205	29.79376
1029.569	15.90752
1029.932	24.58533
1030.295	21.47608
1030.659	20.33011
1031.022	19.0747
1031.385	21.89542
1031.748	25.04136
1032.111	20.28804
1032.474	15.51379
1032.836	22.79317
1033.199	25.10946
1033.562	22.34479
1033.924	26.22927
1034.287	24.54386
1034.65	16.51236
1035.012	19.93129
1035.374	26.28735
1035.737	28.05077
1036.099	26.04806
1036.461	18.675
1036.823	7.55013
1037.185	26.30342
1037.547	34.95358
1037.909	28.51235
1038.271	25.35747
1038.633	30.73275
1038.995	13.5468
1039.356	16.71549
1039.718	29.33653
1040.08	28.56071
1040.441	24.90486
1040.803	19.3947
1041.164	19.76772
1041.525	22.89162
1041.886	24.91106
1042.248	27.69098
1042.609	28.66255
1042.97	29.07342
1043.331	25.68215
1043.692	5.74433
1044.053	1.20423
1044.413	23.69405
1044.774	6.84079
1045.135	14.85321
1045.495	39.08057
1045.856	19.07263
1046.216	23.28923
1046.577	28.16954
1046.937	11.6711
1047.298	23.80198
