Data from 1016water_Reflection__9__20-40-44-579.txt Node

Date: Thu Oct 16 20:40:44 AST 2025
User: lin
Spectrometer: SR600411
Trigger mode: 0
Integration Time (sec): 5.601500E-2
Scans to average: 5
Nonlinearity correction enabled: true
Boxcar width: 0
Storing dark spectrum: false
XAxis mode: Wavelengths
Number of Pixels in Spectrum: 2048
>>>>>Begin Spectral Data<<<<<
187.982	63.56053
188.456	55.80765
188.93	66.65478
189.403	58.48926
189.877	60.21937
190.351	60.68787
190.825	52.92775
191.298	59.18805
191.772	60.07075
192.246	70.94452
192.719	54.04312
193.193	60.59669
193.666	57.00986
194.139	56.49025
194.613	47.78067
195.086	58.87595
195.559	67.85807
196.033	64.47143
196.506	67.24187
196.979	60.87444
197.452	67.97347
197.925	49.61967
198.398	63.96154
198.871	50.38145
199.344	48.38201
199.816	54.35376
200.289	48.54739
200.762	57.83956
201.235	59.9874
201.707	66.82027
202.18	41.27081
202.652	67.05856
203.125	44.19615
203.597	70.85476
204.07	57.79511
204.542	48.86758
205.014	43.8801
205.486	67.73388
205.959	36.30465
206.431	47.63866
206.903	76.34605
207.375	58.45529
207.847	53.51412
208.319	49.06872
208.791	34.99369
209.263	31.57488
209.734	49.24709
210.206	75.48646
210.678	87.99738
211.15	47.05295
211.621	37.0308
212.093	52.6954
212.564	66.66191
213.036	49.06872
213.507	76.83875
213.979	64.22734
214.45	58.64885
214.921	58.92319
215.392	59.45416
215.864	71.29191
216.335	57.45619
216.806	30.88911
217.277	89.00922
217.748	36.50214
218.219	72.61574
218.69	45.0257
219.161	13.33127
219.631	64.02989
220.102	58.61371
220.573	56.19245
221.043	60.41212
221.514	60.82016
221.985	63.63182
222.455	60.76309
222.926	24.75802
223.396	49.99485
223.866	63.10912
224.337	31.36819
224.807	53.63094
225.277	76.54033
225.747	49.25796
226.217	43.47266
226.687	52.23218
227.157	65.47243
227.627	70.36703
228.097	40.16537
228.567	16.50204
229.037	74.99613
229.507	28.29762
229.977	37.18448
230.446	47.70103
230.916	51.78017
231.386	40.44519
231.855	40.33046
232.325	51.66072
232.794	62.80432
233.263	64.60949
233.733	62.1988
234.202	62.21803
234.671	63.91309
235.14	64.09901
235.61	48.29924
236.079	51.10888
236.548	75.85891
237.017	64.40142
237.486	32.49478
237.955	77.21243
238.424	98.9009
238.892	67.5879
239.361	63.03923
239.83	79.50426
240.299	55.9636
240.767	82.55568
241.236	85.57438
241.704	38.93273
242.173	69.99667
242.641	34.87985
243.109	38.45727
243.578	59.6983
244.046	58.71036
244.514	58.42268
244.982	51.66072
245.451	42.25008
245.919	59.20689
246.387	69.99625
246.855	34.87985
247.323	65.34863
247.791	67.94535
248.258	52.47025
248.726	2.77739
249.194	74.10288
249.662	79.10228
250.129	57.88923
250.597	43.09781
251.064	53.91654
251.532	57.56937
251.999	65.78439
252.467	76.56023
252.934	34.90088
253.401	88.29595
253.869	58.02078
254.336	69.40819
254.803	62.24034
255.27	76.82637
255.737	37.6431
256.204	61.53358
256.671	62.36127
257.138	36.10782
257.605	56.60119
258.072	56.91676
258.539	65.0439
259.005	47.29364
259.472	58.13538
259.939	52.03596
260.405	47.0563
260.872	81.24758
261.338	50.47098
261.805	49.99385
262.271	60.64996
262.737	28.84192
263.203	41.23246
263.67	55.66535
264.136	65.51335
264.602	41.0219
265.068	77.90404
265.534	44.89315
266	79.58868
266.466	67.67248
266.932	65.1124
267.398	71.89598
267.864	60.15017
268.329	71.69385
268.795	58.81782
269.261	46.57174
269.726	24.99732
270.192	46.20561
270.657	55.16672
271.123	31.24523
271.588	46.73459
272.053	65.21428
272.519	87.3988
272.984	67.68949
273.449	79.9981
273.914	48.99505
274.379	83.83572
274.844	30.18425
275.309	57.13844
275.774	80.19484
276.239	50.41427
276.704	54.04859
277.169	52.3768
277.634	45.35606
278.098	68.68264
278.563	55.04052
279.028	62.34898
279.492	58.61511
279.957	61.3595
280.421	106.45246
280.886	52.47025
281.35	59.40111
281.814	46.42581
282.279	21.53628
282.743	81.15733
283.207	65.17353
283.671	58.19083
284.135	57.59395
284.599	48.53859
285.063	75.95777
285.527	37.97099
285.991	73.32984
286.455	10.58664
286.919	70.47186
287.382	57.25928
287.846	28.99592
288.31	69.13238
288.773	58.32986
289.237	68.91577
289.7	62.25921
290.164	35.5722
290.627	68.41779
291.09	65.342
291.554	95.60364
292.017	46.45977
292.48	66.3504
292.943	54.28055
293.406	53.00795
293.869	75.85891
294.332	41.50433
294.795	43.20594
295.258	21.3558
295.721	46.59686
296.184	71.18404
296.646	35.89388
297.109	71.61864
297.572	61.90083
298.034	103.03071
298.497	57.97745
298.959	76.27645
299.422	91.17538
299.884	52.33116
300.346	45.97273
300.809	50.74295
301.271	56.11766
301.733	70.58543
302.195	57.82731
302.657	33.3291
303.119	84.8468
303.581	9.8885
304.043	45.11792
304.505	37.10891
304.967	46.80387
305.429	53.72474
305.891	39.05948
306.352	4.34726
306.814	55.55203
307.275	42.37003
307.737	13.79174
308.198	78.62159
308.66	42.85307
309.121	52.10916
309.583	83.998
310.044	55.06908
310.505	49.05135
310.966	75.30565
311.428	41.66262
311.889	49.53588
312.35	68.69075
312.811	48.05563
313.272	109.80501
313.733	74.99717
314.193	165.38095
314.654	55.90944
315.115	76.40131
315.576	54.317
316.036	91.3964
316.497	67.08515
316.957	34.54052
317.418	106.6673
317.878	29.90967
318.339	72.14875
318.799	53.63094
319.259	88.70845
319.72	122.86104
320.18	53.5659
320.64	91.66558
321.1	76.13319
321.56	54.54059
322.02	56.7257
322.48	94.87104
322.94	9.19396
323.4	70.20887
323.86	73.20993
324.319	41.6632
324.779	76.56022
325.239	47.74226
325.698	33.76282
326.158	98.76524
326.617	65.62214
327.077	74.57405
327.536	52.49604
327.996	112.07052
328.455	52.93698
328.914	53.48413
329.373	25.33052
329.832	32.2875
330.292	114.49502
330.751	65.81926
331.21	79.79482
331.668	94.20215
332.127	51.27818
332.586	116.66852
333.045	78.34725
333.504	37.5878
333.962	69.22857
334.421	74.99747
334.88	29.50568
335.338	62.61186
335.797	15.998
336.255	59.45592
336.714	51.27819
337.172	33.60818
337.63	43.13477
338.088	85.91379
338.547	80.72033
339.005	66.26138
339.463	69.3647
339.921	43.32896
340.379	75.30565
340.837	54.3433
341.295	41.93249
341.753	64.37693
342.21	55.55159
342.668	65.85
343.126	66.23035
343.584	28.82432
344.041	54.36387
344.499	64.21522
344.956	72.49684
345.414	81.71768
345.871	48.03417
346.328	39.23678
346.786	67.7915
347.243	68.03706
347.7	14.92369
348.157	69.4399
348.614	93.74907
349.071	55.31224
349.528	65.73591
349.985	29.30558
350.442	67.5879
350.899	59.77822
351.356	69.87605
351.812	49.54405
352.269	71.55523
352.726	38.26782
353.182	23.45391
353.639	80.17669
354.095	33.3295
354.552	44.33444
355.008	63.92885
355.465	35.63897
355.921	55.54938
356.377	57.27656
356.833	39.07636
357.289	60.86413
357.745	36.7776
358.201	61.69553
358.657	58.81781
359.113	47.41789
359.569	58.85318
360.025	72.72122
360.481	51.08812
360.937	39.56333
361.392	76.46453
361.848	72.18263
362.303	62.58934
362.759	62.15355
363.214	47.0179
363.67	60.46626
364.125	54.21799
364.581	41.72005
365.036	64.33739
365.491	56.56998
365.946	55.01587
366.401	59.23202
366.856	49.23278
367.311	56.98861
367.766	64.90728
368.221	50.33732
368.676	57.42109
369.131	58.75012
369.586	56.31046
370.041	53.46093
370.495	52.74234
370.95	54.30865
371.404	57.1488
371.859	55.75691
372.313	60.36735
372.768	55.99461
373.222	54.1138
373.676	56.77498
374.131	56.65709
374.585	53.87496
375.039	53.13462
375.493	54.78804
375.947	54.79422
376.401	51.73371
376.855	55.8555
377.309	54.63648
377.763	55.60582
378.217	55.42979
378.67	52.63773
379.124	58.63492
379.578	55.08888
380.031	58.96803
380.485	55.09311
380.938	54.85607
381.392	52.97918
381.845	55.6678
382.299	55.27902
382.752	54.16722
383.205	54.18747
383.658	54.12466
384.111	54.23247
384.564	56.89322
385.018	54.88551
385.471	55.31854
385.923	55.77977
386.376	55.29998
386.829	56.46822
387.282	56.72653
387.735	56.79152
388.187	56.34287
388.64	55.4732
389.093	55.43027
389.545	55.54366
389.998	55.94648
390.45	55.34326
390.902	55.32418
391.355	55.67022
391.807	57.16607
392.259	55.43366
392.711	56.10343
393.163	56.21293
393.615	56.51983
394.068	55.9251
394.519	55.89091
394.971	56.29674
395.423	55.24975
395.875	55.9408
396.327	56.24709
396.779	56.08937
397.23	56.44911
397.682	56.49054
398.133	55.67029
398.585	55.89909
399.036	55.35464
399.488	55.45407
399.939	56.05129
400.39	54.99458
400.842	55.38246
401.293	54.29855
401.744	54.90561
402.195	54.72167
402.646	54.81907
403.097	54.65971
403.548	54.62115
403.999	54.22206
404.45	54.33395
404.9	54.86388
405.351	54.30877
405.802	54.3037
406.253	53.20572
406.703	53.39898
407.154	52.87879
407.604	53.63856
408.055	53.07544
408.505	52.21244
408.955	53.19295
409.406	52.7385
409.856	52.68037
410.306	52.72785
410.756	52.57034
411.206	52.34858
411.656	51.9898
412.106	51.06427
412.556	51.4267
413.006	50.93309
413.456	51.05374
413.905	50.56238
414.355	51.02986
414.805	51.33666
415.254	50.38336
415.704	51.00112
416.153	49.81442
416.603	49.67878
417.052	49.70587
417.502	49.57357
417.951	49.91172
418.4	49.45268
418.849	49.01172
419.298	49.11801
419.748	48.73746
420.197	48.70545
420.646	48.26088
421.094	48.56314
421.543	47.97699
421.992	47.85413
422.441	47.60142
422.89	48.11917
423.338	47.57819
423.787	47.20228
424.236	47.29576
424.684	47.44161
425.133	46.65896
425.581	46.65629
426.029	46.85238
426.478	46.40678
426.926	46.67294
427.374	47.06933
427.822	46.33678
428.27	46.47377
428.718	46.04715
429.166	46.15734
429.614	46.01363
430.062	46.27469
430.51	46.27922
430.958	46.484
431.406	45.70455
431.853	45.90095
432.301	45.94303
432.749	46.11338
433.196	44.89403
433.644	45.20312
434.091	44.92861
434.538	45.7372
434.986	45.08527
435.433	45.57381
435.88	45.34522
436.327	45.45887
436.775	45.21617
437.222	45.045
437.669	44.71461
438.116	44.72578
438.563	44.79224
439.009	45.06058
439.456	45.00351
439.903	45.25004
440.35	44.84104
440.796	45.14529
441.243	44.91948
441.689	45.02937
442.136	44.85982
442.582	44.92718
443.029	44.82484
443.475	44.83422
443.921	44.53418
444.368	44.96296
444.814	44.80287
445.26	44.83756
445.706	45.04308
446.152	44.88578
446.598	44.43375
447.044	45.0603
447.49	44.84134
447.936	44.78614
448.381	44.70179
448.827	45.19569
449.273	45.09193
449.718	45.06253
450.164	45.26578
450.61	45.01927
451.055	44.94292
451.5	45.00924
451.946	45.33413
452.391	45.25236
452.836	45.64539
453.282	45.26212
453.727	45.27306
454.172	45.53329
454.617	45.12608
455.062	45.63186
455.507	45.88134
455.952	45.69406
456.396	45.56181
456.841	46.03075
457.286	46.19489
457.731	46.47258
458.175	46.0546
458.62	46.46097
459.064	46.46559
459.509	46.52094
459.953	46.35288
460.398	46.72102
460.842	46.67952
461.286	46.49782
461.73	46.7938
462.174	47.29346
462.619	46.75603
463.063	47.76486
463.507	47.40196
463.951	47.68167
464.394	47.81359
464.838	47.89974
465.282	47.8189
465.726	48.06823
466.17	48.39409
466.613	48.10398
467.057	48.32056
467.5	48.87133
467.944	48.93559
468.387	49.2242
468.831	49.62277
469.274	49.21085
469.717	49.75908
470.16	50.39035
470.603	50.43526
471.047	50.5396
471.49	50.79282
471.933	51.09806
472.376	50.73391
472.818	51.1127
473.261	50.98878
473.704	51.22699
474.147	51.7051
474.59	51.72851
475.032	51.68006
475.475	52.23097
475.917	52.37311
476.36	52.54729
476.802	52.20926
477.245	52.57487
477.687	53.51341
478.129	53.16955
478.571	53.69411
479.013	54.13616
479.456	53.84708
479.898	54.0581
480.34	54.37223
480.782	54.08049
481.224	54.22229
481.665	54.04881
482.107	54.41797
482.549	54.66784
482.991	54.47141
483.432	54.81351
483.874	54.88046
484.315	54.99875
484.757	54.82033
485.198	55.30959
485.64	55.57088
486.081	55.28163
486.522	55.42887
486.963	55.96777
487.405	55.34915
487.846	56.03897
488.287	56.11704
488.728	56.25183
489.169	56.06418
489.61	56.28412
490.05	56.31893
490.491	56.57293
490.932	56.23007
491.373	56.21458
491.813	56.96161
492.254	56.37636
492.694	56.54106
493.135	56.9178
493.575	56.60025
494.016	56.39242
494.456	56.07481
494.896	56.84067
495.336	56.67117
495.777	57.27976
496.217	57.05056
496.657	56.79073
497.097	56.85805
497.537	57.1498
497.977	57.12118
498.416	57.55682
498.856	57.69204
499.296	57.51117
499.736	57.60751
500.175	57.35561
500.615	57.73805
501.054	58.27694
501.494	58.01878
501.933	57.99168
502.373	57.9088
502.812	58.60276
503.251	58.55336
503.69	58.52061
504.129	59.06915
504.569	59.24126
505.008	59.52179
505.447	59.46817
505.886	60.19324
506.324	59.80012
506.763	59.83228
507.202	60.1416
507.641	59.84338
508.079	60.45447
508.518	61.31964
508.957	60.88834
509.395	60.51773
509.834	61.65454
510.272	61.94181
510.71	61.197
511.149	61.51729
511.587	61.88745
512.025	61.92073
512.463	61.80668
512.901	61.80298
513.339	62.23594
513.777	63.92474
514.215	62.91209
514.653	62.6117
515.091	63.51339
515.529	63.45548
515.966	63.38387
516.404	64.39821
516.842	63.87839
517.279	64.52247
517.717	64.03497
518.154	64.6179
518.592	64.56998
519.029	64.54981
519.466	65.1437
519.904	65.36755
520.341	65.41293
520.778	65.74479
521.215	66.06141
521.652	65.70128
522.089	66.20272
522.526	66.35365
522.963	66.39994
523.399	65.97893
523.836	67.09896
524.273	67.05495
524.71	67.53215
525.146	67.79555
525.583	68.20031
526.019	67.83952
526.456	67.97043
526.892	68.48121
527.328	68.71367
527.765	68.75506
528.201	68.96623
528.637	68.90244
529.073	69.20594
529.509	69.29544
529.945	70.06395
530.381	69.57753
530.817	69.76968
531.253	69.6668
531.689	69.7836
532.124	70.11105
532.56	70.79036
532.996	70.15361
533.431	71.263
533.867	71.21019
534.302	71.07726
534.738	71.59836
535.173	71.4884
535.608	71.71565
536.044	72.49477
536.479	71.73832
536.914	71.83699
537.349	72.00117
537.784	72.04222
538.219	72.1428
538.654	71.96127
539.089	72.18336
539.524	71.97584
539.959	71.54756
540.393	72.23686
540.828	72.25559
541.263	72.84989
541.697	72.5794
542.132	72.37477
542.566	72.10673
543.001	72.36043
543.435	72.89846
543.869	72.55448
544.303	72.34011
544.738	73.07751
545.172	72.2696
545.606	72.37706
546.04	72.76018
546.474	72.70046
546.908	72.80638
547.342	72.47392
547.775	72.71453
548.209	71.83714
548.643	72.79313
549.077	72.71649
549.51	72.7082
549.944	72.21509
550.377	72.19817
550.811	71.92275
551.244	71.55545
551.677	71.48512
552.111	71.70394
552.544	71.32151
552.977	70.84852
553.41	70.55164
553.843	70.46218
554.276	70.7441
554.709	69.22246
555.142	69.8794
555.575	70.18461
556.008	69.8019
556.44	69.38839
556.873	69.34689
557.306	68.89773
557.738	68.5368
558.171	68.47352
558.603	68.40578
559.036	68.06872
559.468	67.78749
559.9	67.85907
560.333	67.10322
560.765	67.26596
561.197	66.8944
561.629	66.36812
562.061	66.78654
562.493	66.88074
562.925	66.95677
563.357	66.27672
563.789	66.30641
564.22	65.885
564.652	65.42352
565.084	65.36719
565.515	65.0645
565.947	64.83145
566.378	64.88104
566.81	64.45702
567.241	64.23062
567.672	64.3642
568.104	64.17612
568.535	63.82171
568.966	63.65138
569.397	62.98702
569.828	62.53715
570.259	62.28994
570.69	62.02083
571.121	61.65965
571.552	61.60612
571.983	61.9205
572.414	61.23988
572.844	61.0159
573.275	60.95389
573.705	60.51639
574.136	60.25225
574.566	60.31473
574.997	59.99222
575.427	60.48403
575.857	59.97313
576.288	59.37702
576.718	59.76789
577.148	59.32829
577.578	59.01816
578.008	58.69009
578.438	59.15841
578.868	58.47463
579.298	57.81267
579.728	57.65745
580.157	57.72815
580.587	57.42261
581.017	57.15563
581.446	56.73086
581.876	56.32725
582.305	56.68836
582.735	56.18365
583.164	56.07225
583.593	55.50009
584.023	55.4829
584.452	55.69042
584.881	55.29591
585.31	55.17959
585.739	55.34596
586.168	54.90956
586.597	54.38538
587.026	54.24478
587.455	53.75458
587.884	54.16286
588.312	54.14013
588.741	53.64612
589.17	53.20184
589.598	52.76768
590.027	52.70996
590.455	52.39843
590.884	52.79495
591.312	52.46216
591.74	52.31418
592.168	52.02267
592.597	52.04132
593.025	51.90689
593.453	51.46903
593.881	51.47117
594.309	50.91353
594.737	51.23232
595.165	50.71767
595.592	50.90562
596.02	50.84518
596.448	50.63473
596.875	50.58989
597.303	50.04984
597.73	50.05858
598.158	50.09209
598.585	49.92545
599.013	49.78786
599.44	49.86445
599.867	49.73905
600.294	49.37242
600.722	48.96002
601.149	49.08141
601.576	49.16921
602.003	48.86809
602.43	48.49544
602.856	48.44647
603.283	48.67581
603.71	48.4876
604.137	48.62604
604.563	48.60268
604.99	48.52947
605.416	47.93411
605.843	48.30233
606.269	48.0353
606.696	47.96475
607.122	47.70506
607.548	47.90916
607.975	47.3022
608.401	47.29034
608.827	47.02026
609.253	47.29847
609.679	46.96268
610.105	46.94185
610.531	47.08603
610.956	47.25815
611.382	47.21208
611.808	47.00442
612.234	46.4356
612.659	46.78184
613.085	46.56656
613.51	46.53267
613.936	46.66926
614.361	46.8278
614.786	46.67711
615.212	46.65921
615.637	46.7134
616.062	46.26861
616.487	46.72636
616.912	46.46669
617.337	46.72683
617.762	46.63365
618.187	46.45667
618.612	46.67486
619.037	46.53036
619.461	46.13919
619.886	46.30055
620.311	46.61037
620.735	46.57934
621.16	46.48086
621.584	46.56482
622.008	46.37814
622.433	46.57596
622.857	46.22489
623.281	45.932
623.705	46.55268
624.13	46.36073
624.554	45.99923
624.978	46.01396
625.402	45.80454
625.826	45.92965
626.249	46.01518
626.673	45.93501
627.097	45.9682
627.521	46.06673
627.944	46.23458
628.368	46.04636
628.791	46.02368
629.215	46.11178
629.638	45.758
630.061	46.10231
630.485	46.36883
630.908	45.83138
631.331	46.58284
631.754	46.55298
632.177	47.11988
632.6	46.8718
633.023	46.80648
633.446	46.92893
633.869	47.30764
634.292	47.53626
634.715	47.90645
635.137	47.82599
635.56	47.67253
635.982	48.09033
636.405	48.25457
636.827	48.44209
637.25	48.64623
637.672	47.63382
638.094	48.00859
638.517	47.91644
638.939	48.15297
639.361	48.62898
639.783	48.81442
640.205	48.85825
640.627	48.99913
641.049	48.91898
641.471	48.73185
641.893	49.20481
642.314	49.43403
642.736	49.1466
643.158	49.16778
643.579	49.75398
644.001	49.84142
644.422	50.37899
644.844	50.01011
645.265	50.14716
645.686	49.90377
646.107	50.59643
646.529	50.58325
646.95	51.00392
647.371	50.83029
647.792	50.97275
648.213	51.35319
648.634	51.45064
649.055	51.6478
649.475	51.98947
649.896	51.697
650.317	52.08078
650.737	52.16525
651.158	52.13568
651.578	52.91136
651.999	52.93853
652.419	52.3495
652.84	52.993
653.26	53.14849
653.68	52.73743
654.1	53.16845
654.521	53.03861
654.941	53.44675
655.361	53.48476
655.781	53.60888
656.2	54.53941
656.62	54.18919
657.04	54.53333
657.46	54.05596
657.879	54.96375
658.299	54.77896
658.719	53.8842
659.138	54.45972
659.558	55.18491
659.977	54.98244
660.396	55.34238
660.816	55.7951
661.235	55.44836
661.654	55.39589
662.073	55.42332
662.492	55.66262
662.911	55.75773
663.33	56.07502
663.749	56.12557
664.168	56.54188
664.587	57.29638
665.006	57.53527
665.424	57.24274
665.843	57.51648
666.261	57.18943
666.68	57.60579
667.098	57.78289
667.517	57.96635
667.935	57.62594
668.353	57.6126
668.772	56.99785
669.19	57.60411
669.608	57.79174
670.026	58.07804
670.444	57.91654
670.862	57.57811
671.28	57.70155
671.698	57.5268
672.115	57.35112
672.533	57.08642
672.951	57.72834
673.368	57.99519
673.786	57.85824
674.203	57.29836
674.621	57.50651
675.038	57.29843
675.456	57.89839
675.873	57.05635
676.29	57.51002
676.707	57.54347
677.124	57.39361
677.541	57.19568
677.958	57.66352
678.375	57.28682
678.792	57.08285
679.209	57.07223
679.626	57.26881
680.043	56.86978
680.459	57.19502
680.876	56.75253
681.292	56.80491
681.709	56.38038
682.125	55.88727
682.542	55.92738
682.958	55.92317
683.374	55.92188
683.79	55.7404
684.207	55.58758
684.623	55.14272
685.039	55.44093
685.455	55.23908
685.871	55.34247
686.286	55.33695
686.702	54.90458
687.118	55.00255
687.534	54.49116
687.949	54.50594
688.365	54.25912
688.781	54.39452
689.196	53.82901
689.611	54.00755
690.027	53.50525
690.442	53.638
690.857	52.99338
691.273	52.81238
691.688	52.80025
692.103	52.48492
692.518	52.21229
692.933	52.11162
693.348	52.48503
693.763	51.9214
694.177	51.86337
694.592	51.75039
695.007	51.04699
695.421	51.24811
695.836	50.79105
696.25	50.68846
696.665	50.67855
697.079	50.7269
697.494	50.10731
697.908	49.5339
698.322	49.53953
698.736	49.20072
699.151	49.26101
699.565	48.81528
699.979	48.6418
700.393	48.45491
700.806	48.47914
701.22	48.10699
701.634	48.41973
702.048	47.53287
702.461	47.23807
702.875	46.80023
703.289	46.73975
703.702	47.20445
704.116	46.32719
704.529	45.94027
704.942	46.0864
705.356	45.57515
705.769	45.41013
706.182	45.08173
706.595	44.73146
707.008	44.67226
707.421	44.1248
707.834	44.61063
708.247	44.09122
708.66	43.87558
709.072	43.85496
709.485	43.50673
709.898	43.6436
710.31	43.01665
710.723	42.92209
711.135	42.55766
711.548	42.78133
711.96	41.60448
712.373	41.92754
712.785	41.1129
713.197	41.48193
713.609	40.43238
714.021	40.52905
714.433	39.70996
714.845	39.57546
715.257	39.4511
715.669	39.23355
716.081	38.71261
716.493	38.81098
716.904	38.89723
717.316	38.50088
717.727	38.50201
718.139	38.25086
718.55	38.09813
718.962	37.8933
719.373	37.57879
719.784	36.82194
720.196	36.7496
720.607	36.26199
721.018	36.31361
721.429	36.02332
721.84	35.57876
722.251	35.71493
722.662	35.61001
723.073	35.46793
723.483	34.76703
723.894	34.75976
724.305	34.14342
724.715	34.12887
725.126	34.18412
725.536	33.99378
725.947	33.86954
726.357	33.59854
726.768	33.38305
727.178	33.31689
727.588	32.84518
727.998	32.73784
728.408	32.24442
728.818	32.42736
729.228	31.99488
729.638	32.28964
730.048	31.66559
730.458	31.7704
730.868	31.62374
731.277	31.29304
731.687	30.87584
732.097	31.2497
732.506	30.92533
732.916	30.76787
733.325	30.44484
733.734	31.00951
734.144	29.95065
734.553	29.97014
734.962	29.40643
735.371	29.73711
735.78	29.25555
736.189	29.24608
736.598	29.09611
737.007	28.88006
737.416	28.29511
737.825	28.70538
738.233	28.46109
738.642	28.78542
739.051	28.04479
739.459	28.10063
739.868	27.44908
740.276	27.77871
740.684	27.34568
741.093	27.37212
741.501	27.01997
741.909	26.63872
742.317	27.18747
742.725	26.57543
743.133	26.48568
743.541	25.97894
743.949	26.94568
744.357	26.1605
744.765	26.47127
745.173	25.98374
745.58	26.54645
745.988	25.83033
746.396	25.95885
746.803	25.46772
747.211	25.9035
747.618	25.7418
748.025	25.56085
748.433	25.47468
748.84	25.47757
749.247	25.63227
749.654	24.73146
750.061	25.25199
750.468	24.62051
750.875	25.12274
751.282	24.60608
751.689	24.95484
752.096	24.36424
752.502	24.80388
752.909	24.5083
753.316	24.33918
753.722	24.44855
754.129	24.27545
754.535	24.32923
754.941	23.83346
755.348	24.36602
755.754	23.6461
756.16	24.22402
756.566	23.23636
756.972	23.6934
757.378	23.87092
757.784	23.40874
758.19	23.56845
758.596	23.43052
759.002	23.92994
759.408	23.31165
759.813	23.64544
760.219	23.51546
760.624	23.64378
761.03	23.35776
761.435	23.13259
761.841	23.13461
762.246	22.55282
762.651	23.09207
763.057	22.66178
763.462	23.48854
763.867	23.16004
764.272	23.75941
764.677	23.49414
765.082	23.26539
765.487	23.3035
765.892	22.88226
766.296	23.22497
766.701	22.53511
767.106	23.25856
767.51	22.19781
767.915	22.79432
768.319	22.5689
768.724	22.38777
769.128	22.05899
769.532	22.20412
769.936	22.83022
770.341	22.01054
770.745	22.51321
771.149	22.41819
771.553	22.22947
771.957	22.38902
772.361	22.30357
772.764	22.5452
773.168	22.00186
773.572	22.59758
773.976	21.90354
774.379	22.22291
774.783	22.27758
775.186	21.80633
775.59	22.36116
775.993	21.825
776.396	22.34893
776.8	21.64838
777.203	22.21057
777.606	22.13379
778.009	21.94762
778.412	22.29364
778.815	21.74492
779.218	22.29434
779.621	22.32611
780.023	21.98152
780.426	22.0828
780.829	21.57793
781.231	22.32963
781.634	21.75786
782.036	22.11765
782.439	21.62521
782.841	22.18135
783.244	22.02299
783.646	22.06763
784.048	22.10607
784.45	21.90215
784.852	21.88456
785.254	22.44422
785.656	21.86164
786.058	22.1605
786.46	21.29682
786.862	21.68528
787.264	21.67358
787.665	21.3045
788.067	21.88954
788.468	21.35353
788.87	21.87724
789.271	21.73454
789.673	21.84875
790.074	22.02942
790.475	21.61457
790.877	22.44712
791.278	21.68388
791.679	21.94358
792.08	22.03629
792.481	21.55801
792.882	22.14276
793.283	21.67168
793.683	21.89624
794.084	21.6033
794.485	21.25459
794.886	21.98492
795.286	21.4171
795.687	21.82045
796.087	21.33408
796.487	21.78179
796.888	22.20197
797.288	21.05107
797.688	21.72977
798.088	21.77472
798.489	21.67537
798.889	22.04941
799.289	21.52763
799.689	22.20043
800.088	21.76436
800.488	21.76675
800.888	22.03355
801.288	21.78261
801.687	22.30138
802.087	21.63452
802.486	21.76008
802.886	21.89937
803.285	21.12914
803.685	21.9706
804.084	21.65376
804.483	21.96585
804.882	22.04182
805.281	21.36451
805.68	22.15783
806.079	21.98921
806.478	22.15532
806.877	21.66015
807.276	21.50179
807.675	22.31957
808.074	21.89936
808.472	21.79967
808.871	22.09795
809.269	21.6285
809.668	22.36324
810.066	22.33699
810.465	21.86738
810.863	21.92817
811.261	21.65981
811.659	22.08031
812.057	22.20677
812.455	21.57467
812.853	22.22877
813.251	21.90332
813.649	22.27488
814.047	22.09235
814.445	21.31662
814.843	21.69903
815.24	21.84029
815.638	21.66246
816.035	22.17163
816.433	21.42179
816.83	21.65241
817.228	22.07608
817.625	21.90485
818.022	22.13521
818.419	21.79367
818.816	21.61954
819.213	22.22469
819.61	21.59432
820.007	22.10539
820.404	22.15814
820.801	21.86763
821.198	22.35149
821.595	22.1743
821.991	22.10235
822.388	22.82475
822.784	22.68966
823.181	23.26205
823.577	23.50532
823.974	23.41543
824.37	23.61414
824.766	23.35407
825.162	22.95009
825.558	23.00588
825.954	22.33585
826.35	22.73848
826.746	22.91283
827.142	22.72759
827.538	23.0484
827.934	23.03503
828.33	23.00594
828.725	23.20777
829.121	22.86178
829.516	22.70188
829.912	22.99839
830.307	22.4861
830.703	22.5596
831.098	22.4599
831.493	22.02492
831.888	22.48441
832.283	21.89309
832.678	21.71636
833.073	22.25682
833.468	22.2437
833.863	22.2295
834.258	22.68221
834.653	22.65486
835.048	22.97987
835.442	23.18413
835.837	22.66615
836.231	22.9534
836.626	22.91414
837.02	22.85905
837.415	23.06149
837.809	23.23508
838.203	22.64449
838.597	22.93223
838.991	21.68882
839.385	22.80809
839.779	22.73588
840.173	22.30721
840.567	22.87595
840.961	22.95495
841.355	22.53104
841.748	22.95861
842.142	23.31795
842.536	23.1715
842.929	22.87541
843.323	23.88754
843.716	23.59857
844.109	23.97202
844.503	23.28052
844.896	23.45055
845.289	23.81728
845.682	23.12683
846.075	23.52322
846.468	23.39926
846.861	23.25343
847.254	23.93353
847.647	23.91853
848.04	23.97793
848.432	24.35135
848.825	23.93569
849.217	23.01605
849.61	23.7369
850.002	24.16705
850.395	23.74653
850.787	23.79792
851.179	23.51871
851.572	24.20323
851.964	24.21113
852.356	24.03326
852.748	24.03925
853.14	24.0198
853.532	24.054
853.924	23.23873
854.315	23.61525
854.707	23.99281
855.099	24.15261
855.491	23.78706
855.882	23.83048
856.274	23.16767
856.665	24.32341
857.056	23.94625
857.448	24.3141
857.839	24.00571
858.23	23.74529
858.621	24.12781
859.012	24.21592
859.403	23.06648
859.794	23.88114
860.185	23.78309
860.576	24.10392
860.967	24.26929
861.358	23.3377
861.748	24.05821
862.139	23.48093
862.529	23.65678
862.92	23.62529
863.31	23.58903
863.701	23.76776
864.091	23.58735
864.481	23.66135
864.872	23.85363
865.262	22.85244
865.652	23.78835
866.042	23.91574
866.432	23.25152
866.822	24.7125
867.211	24.82484
867.601	23.20715
867.991	23.73598
868.381	23.25336
868.77	23.03778
869.16	23.73201
869.549	23.77624
869.939	23.62697
870.328	23.41288
870.717	23.98415
871.106	23.3593
871.496	23.52601
871.885	23.97776
872.274	23.62464
872.663	23.92315
873.052	23.73155
873.441	23.08915
873.829	23.20962
874.218	23.00997
874.607	22.76908
874.996	23.22299
875.384	24.04764
875.773	23.09735
876.161	22.69456
876.549	22.91869
876.938	22.77998
877.326	22.52089
877.714	22.89722
878.102	22.42739
878.491	22.64451
878.879	23.31231
879.267	22.8847
879.655	22.70235
880.042	23.43094
880.43	23.46356
880.818	23.15508
881.206	24.00223
881.593	23.82373
881.981	23.44008
882.368	24.09657
882.756	23.93952
883.143	23.94092
883.53	23.47103
883.918	23.73966
884.305	23.2189
884.692	23.37463
885.079	23.70591
885.466	23.30085
885.853	23.65075
886.24	23.71849
886.627	23.01334
887.014	23.36766
887.4	23.33911
887.787	23.07816
888.174	23.20131
888.56	23.72795
888.947	23.97536
889.333	23.40522
889.719	23.52893
890.106	22.86904
890.492	23.00791
890.878	23.44718
891.264	23.02109
891.65	22.36834
892.036	22.14529
892.422	22.8942
892.808	22.72848
893.194	22.76105
893.58	23.04349
893.965	23.14828
894.351	22.32371
894.736	23.28117
895.122	23.02433
895.507	22.88262
895.893	23.16138
896.278	23.35208
896.663	23.54482
897.049	23.15826
897.434	23.25068
897.819	23.23125
898.204	22.94894
898.589	23.11518
898.974	23.0386
899.359	23.14617
899.743	22.95349
900.128	23.0229
900.513	22.37491
900.897	22.79255
901.282	22.89071
901.667	22.58166
902.051	22.55883
902.435	23.06007
902.82	22.31954
903.204	22.31661
903.588	22.73791
903.972	22.81098
904.356	23.20958
904.74	22.94947
905.124	23.41501
905.508	23.26994
905.892	22.96043
906.276	23.32478
906.659	23.71134
907.043	22.97008
907.427	23.23634
907.81	23.29641
908.194	23.03657
908.577	23.77884
908.96	23.88558
909.344	22.88453
909.727	22.57392
910.11	22.74972
910.493	23.29046
910.876	23.08711
911.259	23.09376
911.642	22.93038
912.025	22.32469
912.408	22.45169
912.79	22.36783
913.173	22.37808
913.556	22.28876
913.938	22.57541
914.321	22.728
914.703	22.01531
915.086	21.89075
915.468	22.62564
915.85	22.07879
916.232	22.28397
916.614	22.6845
916.996	22.91483
917.378	22.36441
917.76	22.59864
918.142	22.89206
918.524	22.42279
918.906	22.52102
919.288	22.67897
919.669	22.53377
920.051	21.92116
920.432	22.81673
920.814	22.56123
921.195	22.50056
921.577	22.17337
921.958	23.55693
922.339	23.48873
922.72	22.69013
923.101	22.65185
923.482	22.34586
923.863	23.00783
924.244	22.32383
924.625	22.80128
925.006	22.84433
925.387	21.9774
925.767	22.68406
926.148	22.09977
926.528	21.95257
926.909	22.10903
927.289	22.86547
927.67	23.40276
928.05	21.56488
928.43	22.48235
928.81	23.30242
929.191	22.70898
929.571	22.5574
929.951	21.58413
930.331	22.87593
930.71	22.00263
931.09	21.11412
931.47	21.93353
931.85	22.22253
932.229	23.15473
932.609	21.48329
932.988	22.29875
933.368	21.56508
933.747	21.25153
934.127	23.15452
934.506	22.02223
934.885	21.6818
935.264	22.44581
935.643	22.53035
936.022	21.91317
936.401	21.03829
936.78	21.67437
937.159	21.0374
937.538	22.47447
937.916	21.68238
938.295	22.26325
938.674	22.44143
939.052	21.96021
939.431	21.08559
939.809	22.0293
940.187	21.3614
940.566	22.22016
940.944	20.72456
941.322	22.84002
941.7	21.87484
942.078	22.0467
942.456	21.71642
942.834	21.35735
943.212	22.31079
943.59	22.11638
943.968	21.53624
944.345	21.25678
944.723	20.0497
945.1	21.53855
945.478	22.04221
945.855	21.81901
946.233	21.93054
946.61	21.84941
946.987	22.30674
947.365	19.93936
947.742	20.62022
948.119	21.29588
948.496	22.26113
948.873	21.67293
949.25	20.40566
949.626	21.95868
950.003	21.57963
950.38	20.44919
950.756	21.83219
951.133	21.44291
951.51	21.70995
951.886	20.16138
952.262	22.62373
952.639	19.95197
953.015	22.27323
953.391	21.99719
953.767	20.70795
954.143	18.86835
954.519	19.94011
954.895	22.46375
955.271	21.15841
955.647	22.33924
956.023	22.99803
956.399	20.27565
956.774	21.68858
957.15	20.6059
957.525	22.07562
957.901	21.5504
958.276	20.27045
958.652	20.2569
959.027	21.41318
959.402	20.79861
959.777	20.04176
960.152	19.1778
960.527	20.80653
960.902	22.73203
961.277	21.09712
961.652	20.99959
962.027	19.41317
962.402	20.9133
962.776	22.20094
963.151	20.42436
963.525	18.74606
963.9	21.16032
964.274	20.56619
964.649	21.97597
965.023	17.34782
965.397	20.69296
965.771	21.55107
966.146	22.37958
966.52	17.86032
966.894	19.38747
967.268	21.70891
967.641	16.81026
968.015	20.01352
968.389	20.31186
968.763	19.83103
969.136	19.80825
969.51	21.29111
969.883	20.04261
970.257	19.94835
970.63	20.91761
971.003	19.92914
971.377	21.7482
971.75	19.50673
972.123	20.31066
972.496	20.00094
972.869	20.78883
973.242	21.05981
973.615	17.59306
973.988	21.64551
974.36	20.42413
974.733	20.71987
975.106	20.19608
975.478	19.47782
975.851	19.73131
976.223	20.88261
976.596	19.34372
976.968	21.32663
977.34	19.92563
977.712	19.02269
978.085	19.76256
978.457	19.36839
978.829	19.71172
979.201	18.50931
979.573	19.14623
979.944	19.12904
980.316	19.79304
980.688	18.68109
981.059	19.84911
981.431	21.26264
981.803	20.55799
982.174	19.09521
982.545	19.61684
982.917	19.08968
983.288	21.34925
983.659	20.43992
984.03	21.49092
984.401	20.61634
984.772	18.43018
985.143	19.26444
985.514	20.12181
985.885	19.26506
986.256	20.11166
986.627	20.74974
986.997	18.57866
987.368	19.03941
987.738	18.94631
988.109	17.02617
988.479	18.73665
988.85	20.45894
989.22	18.8548
989.59	19.90038
989.96	19.62876
990.33	19.50711
990.7	18.68409
991.07	18.38518
991.44	18.78014
991.81	18.25127
992.18	19.23746
992.549	18.79683
992.919	17.01942
993.289	20.33343
993.658	17.41705
994.028	20.05593
994.397	20.36158
994.766	18.09456
995.136	20.18461
995.505	19.03651
995.874	19.34498
996.243	18.12617
996.612	20.32165
996.981	18.01336
997.35	20.46272
997.719	19.5339
998.088	17.59204
998.456	21.21927
998.825	19.80764
999.194	16.8025
999.562	20.43646
999.931	20.76087
1000.299	21.35155
1000.667	18.3369
1001.036	19.39713
1001.404	19.09735
1001.772	18.99029
1002.14	18.34599
1002.508	19.13006
1002.876	19.48855
1003.244	19.66482
1003.612	18.19706
1003.98	19.93597
1004.347	18.45334
1004.715	15.13103
1005.083	17.77179
1005.45	20.44345
1005.818	17.41801
1006.185	21.67531
1006.552	22.91095
1006.92	14.88534
1007.287	19.55803
1007.654	19.51377
1008.021	19.35831
1008.388	23.88853
1008.755	15.06995
1009.122	12.57279
1009.489	18.47163
1009.856	22.52482
1010.222	18.81332
1010.589	20.41614
1010.956	23.19099
1011.322	15.31613
1011.689	20.1608
1012.055	21.13322
1012.421	19.35253
1012.788	17.2099
1013.154	20.72357
1013.52	20.69875
1013.886	17.25101
1014.252	17.18926
1014.618	20.4301
1014.984	22.96627
1015.35	16.47515
1015.716	19.33019
1016.081	22.35274
1016.447	22.84673
1016.813	17.80669
1017.178	21.08659
1017.544	22.7042
1017.909	20.45849
1018.274	26.16784
1018.64	18.59898
1019.005	19.55399
1019.37	19.8542
1019.735	18.0531
1020.1	26.00713
1020.465	18.07483
1020.83	20.54901
1021.195	23.72535
1021.56	22.56758
1021.924	25.12399
1022.289	23.45162
1022.654	22.12663
1023.018	15.76523
1023.383	23.75662
1023.747	14.4793
1024.111	16.12519
1024.476	18.11781
1024.84	18.1491
1025.204	24.22889
1025.568	16.09068
1025.932	25.78778
1026.296	27.31995
1026.66	34.10958
1027.024	22.00676
1027.387	19.60933
1027.751	23.13616
1028.115	17.62111
1028.478	28.11204
1028.842	21.30365
1029.205	27.10335
1029.569	23.07856
1029.932	19.57636
1030.295	16.6542
1030.659	22.77997
1031.022	26.32986
1031.385	28.86414
1031.748	19.98627
1032.111	20.53855
1032.474	16.88285
1032.836	13.77511
1033.199	27.59609
1033.562	22.34479
1033.924	24.02011
1034.287	23.36084
1034.65	30.71017
1035.012	23.39816
1035.374	23.39817
1035.737	26.41643
1036.099	24.23047
1036.461	23.97566
1036.823	3.95475
1037.185	25.37492
1037.547	31.35954
1037.909	29.49571
1038.271	16.16918
1038.633	31.28661
1038.995	10.98374
1039.356	15.692
1039.718	34.40799
1040.08	29.31242
1040.441	18.1731
1040.803	17.15665
1041.164	16.78365
1041.525	24.7995
1041.886	16.60648
1042.248	15.87056
1042.609	42.28044
1042.97	29.07342
1043.331	24.89184
1043.692	13.78697
1044.053	20.07242
1044.413	11.84628
1044.774	10.26137
1045.135	20.8754
1045.495	22.26521
1045.856	17.6597
1046.216	21.01695
1046.577	26.51235
1046.937	7.10402
1047.298	28.56294
