Data from 1016water_Reflection__26__20-42-48-908.txt Node

Date: Thu Oct 16 20:42:48 AST 2025
User: lin
Spectrometer: SR600411
Trigger mode: 0
Integration Time (sec): 5.601500E-2
Scans to average: 5
Nonlinearity correction enabled: true
Boxcar width: 0
Storing dark spectrum: false
XAxis mode: Wavelengths
Number of Pixels in Spectrum: 2048
>>>>>Begin Spectral Data<<<<<
187.982	61.15469
188.456	53.06778
188.93	61.0984
189.403	48.62491
189.877	45.54712
190.351	68.98593
190.825	59.54584
191.298	57.98794
191.772	59.24763
192.246	68.86943
192.719	36.92668
193.193	68.17331
193.666	48.92453
194.139	65.49104
194.613	56.23674
195.086	53.69041
195.559	56.30419
196.033	72.57303
196.506	63.11123
196.979	48.01268
197.452	72.7907
197.925	52.49742
198.398	72.566
198.871	58.64867
199.344	59.27997
199.816	63.41623
200.289	59.33923
200.762	67.75813
201.235	61.49701
201.707	59.99026
202.18	49.99148
202.652	69.45406
203.125	33.32725
203.597	70.19242
204.07	71.66935
204.542	59.54206
205.014	44.43564
205.486	80.10165
205.959	52.50512
206.431	54.69754
206.903	63.50671
207.375	59.22455
207.847	49.99296
208.319	49.99464
208.791	17.85307
209.263	55.78483
209.734	64.91933
210.206	66.66217
210.678	80.79615
211.15	47.05295
211.621	32.58672
212.093	58.10097
212.564	65.73592
213.036	90.73894
213.507	56.83748
213.979	59.84749
214.45	76.91942
214.921	71.42404
215.392	66.66178
215.864	80.5522
216.335	49.24709
216.806	52.83946
217.277	85.71208
217.748	33.32778
218.219	65.47243
218.69	49.66139
219.161	36.66253
219.631	53.50315
220.102	62.06219
220.573	62.80432
221.043	86.45611
221.514	74.22313
221.985	59.59123
222.455	44.60902
222.926	35.23334
223.396	30.76484
223.866	60.64996
224.337	24.50606
224.807	26.3594
225.277	58.02079
225.747	28.67095
226.217	64.34259
226.687	47.00831
227.157	49.99584
227.627	34.56427
228.097	62.38772
228.567	25.23886
229.037	103.84698
229.507	45.27781
229.977	46.27503
230.446	81.64814
230.916	32.13802
231.386	37.07454
231.855	53.77565
232.325	69.16159
232.794	61.97782
233.263	58.45528
233.733	38.57671
234.202	62.21803
234.671	67.00605
235.14	32.04791
235.61	55.07896
236.079	42.22005
236.548	57.46705
237.017	64.40142
237.486	30.82826
237.955	51.89482
238.424	81.31594
238.892	82.4043
239.361	45.64765
239.83	68.02753
240.299	45.5158
240.767	86.04446
241.236	44.22568
241.704	39.81764
242.173	62.49628
242.641	61.62388
243.109	62.63314
243.578	100
244.046	84.40083
244.514	59.54631
244.982	39.99429
245.451	94.36545
245.919	19.73445
246.387	87.77586
246.855	55.80975
247.323	65.34863
247.791	43.58594
248.258	53.46036
248.726	80.55332
249.194	83.03259
249.662	70.14647
250.129	57.01201
250.597	60.33932
251.064	42.15193
251.532	62.87268
251.999	59.64368
252.467	120.3156
252.934	40.56097
253.401	102.12806
253.869	55.55159
254.336	89.41017
254.803	55.09724
255.27	80.48525
255.737	55.28995
256.204	70.18799
256.671	58.06003
257.138	74.99732
257.605	71.69598
258.072	57.68602
258.539	73.78246
259.005	43.23964
259.472	61.62387
259.939	58.15853
260.405	19.60625
260.872	81.24758
261.338	68.56694
261.805	62.09099
262.271	53.27267
262.737	37.49516
263.203	58.75823
263.67	84.53357
264.136	60.91543
264.602	73.07388
265.068	87.2074
265.534	36.73018
266	53.05638
266.466	20.19886
266.932	94.18511
267.398	75.20214
267.864	58.5876
268.329	41.50433
268.795	68.0621
269.261	90.4097
269.726	52.77422
270.192	49.23588
270.657	18.10004
271.123	64.28062
271.588	69.56135
272.053	81.15733
272.519	59.04902
272.984	81.53652
273.449	121.6698
273.914	94.99906
274.379	51.51024
274.844	41.50433
275.309	62.63314
275.774	63.36169
276.239	56.29672
276.704	54.04859
277.169	85.71225
277.634	44.32515
278.098	73.73357
278.563	41.27916
279.028	84.7037
279.492	63.78779
279.957	46.58657
280.421	67.73925
280.886	44.54951
281.35	31.67883
281.814	66.06894
282.279	64.61244
282.743	53.61978
283.207	68.74523
283.671	46.71529
284.135	59.19401
284.599	68.92767
285.063	58.64885
285.527	74.68058
285.991	87.77586
286.455	51.7605
286.919	65.7096
287.382	60.67823
287.846	33.99555
288.31	77.775
288.773	45.82979
289.237	44.59097
289.7	66.03302
290.164	53.84103
290.627	89.47226
291.09	73.2634
291.554	68.12795
292.017	58.5811
292.48	56.06954
292.943	59.04258
293.406	56.62246
293.869	49.42097
294.332	42.4477
294.795	49.3787
295.258	54.36387
295.721	41.74261
296.184	106.78051
296.646	44.86797
297.109	81.07883
297.572	89.28412
298.034	80.30096
298.497	59.65819
298.959	71.1475
299.422	44.11432
299.884	51.39657
300.346	48.27156
300.809	-8.95393
301.271	61.21988
301.733	107.35401
302.195	83.13022
302.657	58.32871
303.119	42.42104
303.581	30.76539
304.043	52.43497
304.505	65.97506
304.967	45.74006
305.429	61.18772
305.891	67.1847
306.352	55.06908
306.814	72.21936
307.275	137.29412
307.737	32.75609
308.198	77.85812
308.66	66.66297
309.121	63.37701
309.583	91.99891
310.044	2.89817
310.505	61.31577
310.966	45.67502
311.428	64.28189
311.889	50.45331
312.35	59.12493
312.811	62.78472
313.272	111.76603
313.733	68.4178
314.193	67.9904
314.654	40.85576
315.115	80.89615
315.576	50.61327
316.036	80.64228
316.497	29.11069
316.957	35.44955
317.418	75.55391
317.878	41.02003
318.339	48.09735
318.799	38.17667
319.259	70.96521
319.72	57.13946
320.18	58.0303
320.64	118.0586
321.1	88.63461
321.56	66.6623
322.02	56.7257
322.48	92.30659
322.94	39.07635
323.4	54.25069
323.86	86.60457
324.319	56.94095
324.779	79.68545
325.239	67.56274
325.698	49.34683
326.158	59.25538
326.617	54.68436
327.077	27.11633
327.536	54.99607
327.996	101.72434
328.455	112.94364
328.914	103.48899
329.373	51.99629
329.832	57.28701
330.292	128.99062
330.751	64.55338
331.21	75.75397
331.668	97.10106
332.127	88.45996
332.586	58.33102
333.045	57.72726
333.504	60.14406
333.962	92.30696
334.421	111.76648
334.88	72.12872
335.338	62.61186
335.797	29.33025
336.255	18.91667
336.714	60.25271
337.172	72.26418
337.63	92.15613
338.088	122.5391
338.547	50.5983
339.005	59.03216
339.463	65.76081
339.921	64.44036
340.379	65.42846
340.837	31.5178
341.295	25.8041
341.753	58.89711
342.21	35.79878
342.668	92.68182
343.126	98.7011
343.584	33.32845
344.041	83.49233
344.499	73.39028
344.956	72.49684
345.414	70.96395
345.871	85.29158
346.328	32.90794
346.786	61.01138
347.243	77.31622
347.7	0
348.157	68.5139
348.614	64.99639
349.071	51.05684
349.528	86.10855
349.985	66.37418
350.442	40.73557
350.899	71.73543
351.356	119.28089
351.812	50.44495
352.269	90.82389
352.726	16.04722
353.182	34.56427
353.639	81.97873
354.095	52.86926
354.552	59.4289
355.008	65.56831
355.465	48.50985
355.921	51.58106
356.377	59.21838
356.833	55.16815
357.289	73.90865
357.745	103.44889
358.201	42.54636
358.657	59.65818
359.113	68.03706
359.569	70.24662
360.025	55.83663
360.481	37.21994
360.937	65.23224
361.392	64.10989
361.848	57.38827
362.303	69.46014
362.759	70.26262
363.214	54.04495
363.67	54.2754
364.125	56.52582
364.581	50.77483
365.036	63.46772
365.491	59.77312
365.946	57.84629
366.401	62.41169
366.856	60.3446
367.311	53.71729
367.766	61.67276
368.221	52.008
368.676	63.70129
369.131	54.58295
369.586	54.90183
370.041	58.47054
370.495	55.91226
370.95	58.50098
371.404	56.58531
371.859	57.81051
372.313	51.51392
372.768	58.38915
373.222	52.8097
373.676	55.51619
374.131	54.72646
374.585	52.07142
375.039	53.37144
375.493	53.12101
375.947	53.11434
376.401	54.42982
376.855	58.15243
377.309	53.9241
377.763	57.73324
378.217	54.62562
378.67	52.89552
379.124	58.63492
379.578	54.90171
380.031	54.86825
380.485	55.30155
380.938	54.13343
381.392	53.73276
381.845	55.5249
382.299	55.21264
382.752	54.32494
383.205	54.45478
383.658	52.61329
384.111	54.46573
384.564	55.30942
385.018	53.81812
385.471	54.99078
385.923	54.50088
386.376	54.98859
386.829	55.00924
387.282	55.91745
387.735	55.02953
388.187	55.94509
388.64	55.65318
389.093	55.93297
389.545	56.16869
389.998	56.21911
390.45	56.49856
390.902	55.34732
391.355	54.75552
391.807	55.62344
392.259	55.63845
392.711	56.5912
393.163	54.91756
393.615	55.68491
394.068	56.33697
394.519	56.26688
394.971	56.28873
395.423	55.37287
395.875	56.43442
396.327	56.37131
396.779	55.90474
397.23	55.87132
397.682	56.19326
398.133	55.28857
398.585	54.95891
399.036	54.31618
399.488	55.45407
399.939	55.51667
400.39	55.7847
400.842	55.64648
401.293	53.53984
401.744	53.74876
402.195	54.23766
402.646	53.72928
403.097	53.23492
403.548	53.88329
403.999	53.48966
404.45	53.72239
404.9	53.28411
405.351	52.94296
405.802	53.60414
406.253	53.4203
406.703	53.06535
407.154	53.09592
407.604	52.97698
408.055	52.59223
408.505	52.36486
408.955	52.15571
409.406	52.07917
409.856	52.09755
410.306	52.15042
410.756	51.58341
411.206	51.69095
411.656	51.08828
412.106	50.73694
412.556	50.4021
413.006	50.36467
413.456	50.70364
413.905	49.67219
414.355	50.09561
414.805	50.25445
415.254	50.29393
415.704	50.45183
416.153	49.30694
416.603	49.60173
417.052	49.24767
417.502	49.37993
417.951	49.08783
418.4	48.68017
418.849	48.68706
419.298	48.48473
419.748	48.52412
420.197	48.03433
420.646	47.95628
421.094	48.19022
421.543	47.6689
421.992	47.61744
422.441	47.31361
422.89	47.47738
423.338	47.0719
423.787	46.99038
424.236	46.77356
424.684	46.79495
425.133	46.62633
425.581	46.62692
426.029	46.29803
426.478	46.07864
426.926	46.61792
427.374	45.66382
427.822	46.22991
428.27	46.20844
428.718	45.98592
429.166	46.10212
429.614	45.7431
430.062	45.76476
430.51	45.57095
430.958	46.21298
431.406	45.2784
431.853	45.91359
432.301	45.63336
432.749	45.48035
433.196	45.12255
433.644	45.00386
434.091	44.63614
434.538	44.96211
434.986	44.50597
435.433	44.98991
435.88	44.37042
436.327	44.76917
436.775	44.59563
437.222	44.39223
437.669	44.68309
438.116	44.2218
438.563	44.32554
439.009	44.83525
439.456	44.63416
439.903	44.66395
440.35	44.43781
440.796	44.56708
441.243	44.50093
441.689	44.44216
442.136	44.44692
442.582	44.64961
443.029	44.55855
443.475	44.63717
443.921	44.17837
444.368	44.37907
444.814	44.09956
445.26	44.10145
445.706	44.57956
446.152	44.7748
446.598	44.28699
447.044	44.35645
447.49	44.6654
447.936	44.37661
448.381	44.87582
448.827	44.96575
449.273	44.49613
449.718	45.13612
450.164	44.76429
450.61	44.4944
451.055	44.4297
451.5	44.72922
451.946	44.54722
452.391	44.66953
452.836	44.80875
453.282	44.89593
453.727	44.80758
454.172	44.81534
454.617	45.39993
455.062	44.87346
455.507	45.3045
455.952	45.21279
456.396	45.13889
456.841	45.5238
457.286	45.53919
457.731	45.91173
458.175	45.41429
458.62	45.53215
459.064	45.65871
459.509	46.11736
459.953	45.84932
460.398	45.98127
460.842	46.21117
461.286	46.06126
461.73	46.08417
462.174	46.72583
462.619	46.08345
463.063	46.99692
463.507	47.07164
463.951	47.17846
464.394	47.23337
464.838	47.27532
465.282	47.33005
465.726	47.58471
466.17	47.73561
466.613	47.70395
467.057	47.89578
467.5	48.1891
467.944	48.5486
468.387	48.55875
468.831	48.27385
469.274	48.48545
469.717	49.01787
470.16	49.82972
470.603	49.74769
471.047	49.88335
471.49	50.30578
471.933	50.27697
472.376	50.26631
472.818	50.42725
473.261	50.3332
473.704	50.48855
474.147	51.2222
474.59	51.1149
475.032	51.20246
475.475	51.72498
475.917	51.93421
476.36	51.85711
476.802	52.18573
477.245	52.05898
477.687	52.92481
478.129	52.52206
478.571	53.29706
479.013	53.29509
479.456	53.40482
479.898	53.83198
480.34	53.55553
480.782	53.8984
481.224	53.81393
481.665	53.35314
482.107	53.88702
482.549	53.92167
482.991	54.09384
483.432	54.3544
483.874	54.67719
484.315	54.50933
484.757	54.06638
485.198	55.1837
485.64	54.82243
486.081	54.5891
486.522	55.11355
486.963	55.28639
487.405	55.12286
487.846	55.78544
488.287	55.77892
488.728	55.95751
489.169	56.12367
489.61	55.91051
490.05	55.68783
490.491	56.23502
490.932	55.92813
491.373	55.74274
491.813	56.3537
492.254	55.86788
492.694	55.72796
493.135	56.10702
493.575	56.1616
494.016	56.08401
494.456	56.19878
494.896	56.37777
495.336	56.63534
495.777	57.0136
496.217	56.6356
496.657	56.7062
497.097	56.63486
497.537	56.61716
497.977	56.81445
498.416	56.7838
498.856	57.23567
499.296	57.10729
499.736	57.65637
500.175	57.28613
500.615	57.63631
501.054	58.00658
501.494	57.88508
501.933	58.03113
502.373	57.66497
502.812	58.06218
503.251	58.26764
503.69	58.10284
504.129	58.82582
504.569	58.85739
505.008	59.15418
505.447	58.66967
505.886	59.20296
506.324	59.65571
506.763	59.95613
507.202	59.3814
507.641	59.89544
508.079	60.20737
508.518	60.74928
508.957	60.69724
509.395	60.32541
509.834	60.85735
510.272	61.29008
510.71	61.28151
511.149	61.41742
511.587	61.72712
512.025	61.66094
512.463	61.84668
512.901	61.37579
513.339	62.00897
513.777	63.15479
514.215	62.40796
514.653	62.58446
515.091	62.85899
515.529	63.15678
515.966	63.1298
516.404	63.64476
516.842	63.43767
517.279	63.85073
517.717	63.81066
518.154	63.93628
518.592	64.17675
519.029	64.51584
519.466	64.61143
519.904	64.78302
520.341	65.0633
520.778	64.79747
521.215	65.40497
521.652	65.28099
522.089	65.60986
522.526	66.20974
522.963	65.88731
523.399	65.95859
523.836	66.60991
524.273	67.08963
524.71	67.58116
525.146	67.67481
525.583	67.62216
526.019	67.62171
526.456	67.76649
526.892	67.64152
527.328	68.17989
527.765	68.18248
528.201	68.05001
528.637	68.56387
529.073	68.95056
529.509	69.13189
529.945	69.80452
530.381	69.54153
530.817	69.54497
531.253	69.42549
531.689	69.96599
532.124	69.67824
532.56	70.01395
532.996	70.06411
533.431	69.96163
533.867	70.88095
534.302	70.68796
534.738	70.71266
535.173	71.07496
535.608	71.00209
536.044	71.75594
536.479	71.3088
536.914	71.77425
537.349	71.27112
537.784	71.83408
538.219	71.2844
538.654	71.12256
539.089	70.8943
539.524	71.31442
539.959	71.19677
540.393	71.74326
540.828	72.05806
541.263	72.52384
541.697	72.325
542.132	72.04656
542.566	72.15079
543.001	72.28867
543.435	72.01
543.869	72.50636
544.303	72.27344
544.738	72.88171
545.172	72.28453
545.606	71.94085
546.04	72.54001
546.474	72.31719
546.908	72.13105
547.342	72.0209
547.775	72.7366
548.209	71.64098
548.643	72.26931
549.077	72.29043
549.51	72.22605
549.944	72.1228
550.377	71.94979
550.811	71.59858
551.244	71.06879
551.677	70.8664
552.111	70.83915
552.544	71.03983
552.977	69.76671
553.41	70.18718
553.843	70.10399
554.276	69.76022
554.709	68.70931
555.142	69.37593
555.575	68.97997
556.008	69.58099
556.44	69.55752
556.873	68.5788
557.306	68.43767
557.738	68.53861
558.171	68.06508
558.603	67.79598
559.036	67.52078
559.468	66.8948
559.9	66.88171
560.333	67.04912
560.765	67.10754
561.197	66.48981
561.629	66.27955
562.061	66.70322
562.493	66.54882
562.925	66.29479
563.357	65.75596
563.789	65.40464
564.22	65.38162
564.652	65.42352
565.084	64.88459
565.515	64.55545
565.947	64.61699
566.378	64.60534
566.81	64.57476
567.241	63.86678
567.672	63.76078
568.104	64.1386
568.535	63.82171
568.966	63.43306
569.397	62.80652
569.828	62.63274
570.259	61.76138
570.69	61.77688
571.121	61.57555
571.552	61.01265
571.983	60.9892
572.414	60.77485
572.844	60.82838
573.275	60.36961
573.705	60.19828
574.136	60.19193
574.566	60.20352
574.997	59.87986
575.427	59.56982
575.857	59.9301
576.288	58.93165
576.718	59.27538
577.148	58.89532
577.578	58.93052
578.008	58.67848
578.438	58.4708
578.868	58.31056
579.298	57.33941
579.728	57.28094
580.157	56.94821
580.587	56.79925
581.017	56.60114
581.446	56.11346
581.876	55.99505
582.305	55.70332
582.735	55.83742
583.164	55.61013
583.593	55.18562
584.023	55.34003
584.452	55.19096
584.881	54.99739
585.31	55.06175
585.739	55.16571
586.168	54.5334
586.597	54.71809
587.026	54.26396
587.455	53.63167
587.884	53.68313
588.312	53.8131
588.741	53.17067
589.17	52.74471
589.598	52.79495
590.027	52.47461
590.455	52.19077
590.884	52.27053
591.312	51.7556
591.74	52.19896
592.168	51.87537
592.597	51.68766
593.025	51.37608
593.453	51.28637
593.881	51.34856
594.309	50.85464
594.737	50.96764
595.165	50.32173
595.592	50.35369
596.02	50.33804
596.448	50.1042
596.875	50.00021
597.303	49.80494
597.73	49.44871
598.158	49.9119
598.585	49.56512
599.013	48.96929
599.44	49.48224
599.867	48.83165
600.294	48.58003
600.722	48.42817
601.149	48.21322
601.576	48.82755
602.003	48.37062
602.43	47.97812
602.856	48.03921
603.283	47.95181
603.71	47.94755
604.137	47.86525
604.563	48.00059
604.99	48.22628
605.416	47.43809
605.843	48.0177
606.269	47.37663
606.696	47.12762
607.122	46.95562
607.548	47.53153
607.975	47.00243
608.401	47.08776
608.827	46.74173
609.253	46.9053
609.679	46.60431
610.105	46.64037
610.531	46.7249
610.956	47.05308
611.382	46.93782
611.808	46.48811
612.234	46.35409
612.659	46.33445
613.085	46.29182
613.51	46.24888
613.936	46.22952
614.361	46.36925
614.786	46.21995
615.212	46.19377
615.637	46.15432
616.062	45.89488
616.487	46.03152
616.912	45.60078
617.337	45.83819
617.762	46.12196
618.187	46.07182
618.612	46.14175
619.037	46.17554
619.461	45.87533
619.886	46.15393
620.311	46.24573
620.735	46.25117
621.16	46.25374
621.584	46.44938
622.008	46.12235
622.433	46.12137
622.857	45.88543
623.281	45.71625
623.705	45.77157
624.13	45.86506
624.554	45.39868
624.978	45.59943
625.402	45.20092
625.826	45.71028
626.249	45.13906
626.673	45.36087
627.097	45.26469
627.521	45.32721
627.944	45.6889
628.368	45.33103
628.791	45.41157
629.215	45.71696
629.638	45.51367
630.061	45.74947
630.485	45.78097
630.908	45.66075
631.331	45.71483
631.754	46.09631
632.177	46.20909
632.6	46.2393
633.023	46.41651
633.446	46.82324
633.869	46.55763
634.292	47.16258
634.715	47.48947
635.137	47.36053
635.56	47.59373
635.982	48.17367
636.405	47.88975
636.827	47.57307
637.25	48.01868
637.672	47.39396
638.094	47.51286
638.517	47.84735
638.939	47.71926
639.361	48.53933
639.783	48.42066
640.205	48.83448
640.627	48.31242
641.049	48.56835
641.471	48.82204
641.893	48.9607
642.314	49.27954
642.736	49.16892
643.158	48.98094
643.579	49.26831
644.001	49.12922
644.422	49.74721
644.844	49.60557
645.265	49.35728
645.686	49.86485
646.107	50.18756
646.529	49.928
646.95	50.61368
647.371	50.23053
647.792	50.6675
648.213	50.68014
648.634	50.69783
649.055	51.2749
649.475	51.57439
649.896	50.97288
650.317	51.16106
650.737	51.40991
651.158	51.47153
651.578	51.84088
651.999	52.33781
652.419	51.87235
652.84	52.50639
653.26	52.73314
653.68	52.50871
654.1	52.70712
654.521	52.37762
654.941	53.0138
655.361	53.59811
655.781	53.46553
656.2	53.63605
656.62	53.57465
657.04	53.95531
657.46	53.64989
657.879	53.82605
658.299	54.46139
658.719	53.57397
659.138	54.10898
659.558	54.33808
659.977	54.39868
660.396	55.27456
660.816	55.03493
661.235	55.25899
661.654	55.1348
662.073	54.85519
662.492	55.37011
662.911	54.91717
663.33	55.31574
663.749	55.77535
664.168	56.25586
664.587	56.40953
665.006	56.56061
665.424	56.32844
665.843	56.90521
666.261	56.53612
666.68	56.49058
667.098	56.96666
667.517	56.69484
667.935	56.92302
668.353	57.06221
668.772	56.69219
669.19	56.98309
669.608	57.16612
670.026	57.48088
670.444	57.11778
670.862	57.64939
671.28	57.30638
671.698	57.52887
672.115	56.96579
672.533	56.53576
672.951	57.00986
673.368	57.29621
673.786	57.26569
674.203	57.22242
674.621	57.42799
675.038	57.64302
675.456	57.8261
675.873	57.57713
676.29	57.00906
676.707	56.78934
677.124	57.14491
677.541	56.97766
677.958	57.44544
678.375	57.45535
678.792	56.57925
679.209	56.47914
679.626	56.54409
680.043	56.80976
680.459	56.2666
680.876	56.29279
681.292	56.27783
681.709	55.93455
682.125	55.77817
682.542	55.67356
682.958	55.64241
683.374	55.64672
683.79	55.69004
684.207	55.64303
684.623	55.60503
685.039	55.1956
685.455	55.06305
685.871	55.10601
686.286	55.13725
686.702	54.71211
687.118	54.56176
687.534	54.36374
687.949	54.4317
688.365	53.97179
688.781	54.04263
689.196	53.69006
689.611	53.3939
690.027	53.32299
690.442	53.11251
690.857	52.78205
691.273	53.0281
691.688	52.8221
692.103	52.14909
692.518	51.98342
692.933	52.44878
693.348	52.20645
693.763	51.76601
694.177	51.3577
694.592	50.87136
695.007	50.84865
695.421	50.78483
695.836	50.73807
696.25	50.27088
696.665	50.5834
697.079	50.47554
697.494	50.08463
697.908	49.60402
698.322	49.51695
698.736	49.27469
699.151	49.16862
699.565	48.89142
699.979	48.69489
700.393	48.42644
700.806	48.46216
701.22	48.41731
701.634	48.39121
702.048	47.38175
702.461	46.95173
702.875	46.82677
703.289	46.59286
703.702	46.62401
704.116	46.01324
704.529	45.47148
704.942	45.68413
705.356	45.57137
705.769	45.08465
706.182	45.02743
706.595	44.77853
707.008	44.40458
707.421	44.32134
707.834	44.2568
708.247	43.94115
708.66	43.43206
709.072	43.82104
709.485	43.62571
709.898	43.59254
710.31	43.09032
710.723	42.55599
711.135	42.53158
711.548	42.23358
711.96	41.43011
712.373	41.49516
712.785	40.9785
713.197	41.1249
713.609	40.26883
714.021	39.84968
714.433	39.25298
714.845	39.83296
715.257	39.30089
715.669	38.95287
716.081	38.68213
716.493	38.62141
716.904	38.24673
717.316	38.54297
717.727	38.52072
718.139	38.2152
718.55	38.07898
718.962	37.61267
719.373	37.44034
719.784	36.91017
720.196	36.35655
720.607	36.34993
721.018	36.00303
721.429	35.76937
721.84	35.55257
722.251	35.40365
722.662	35.60388
723.073	35.24097
723.483	34.72841
723.894	34.24568
724.305	34.28242
724.715	34.14653
725.126	34.15497
725.536	33.78978
725.947	33.59323
726.357	33.411
726.768	33.18054
727.178	32.48214
727.588	32.74921
727.998	32.20269
728.408	31.93761
728.818	31.9179
729.228	31.83497
729.638	31.79957
730.048	31.51052
730.458	31.62869
730.868	31.00894
731.277	31.11633
731.687	30.66454
732.097	30.95207
732.506	30.43427
732.916	30.42162
733.325	30.50795
733.734	30.29201
734.144	29.79721
734.553	30.00523
734.962	29.41888
735.371	29.56715
735.78	29.09184
736.189	29.01838
736.598	28.72467
737.007	28.71194
737.416	28.04837
737.825	28.16429
738.233	28.34197
738.642	28.19553
739.051	27.6461
739.459	27.54211
739.868	27.3096
740.276	27.53717
740.684	26.98434
741.093	27.00084
741.501	26.98411
741.909	26.60236
742.317	27.0275
742.725	26.12058
743.133	26.53244
743.541	26.08069
743.949	26.57845
744.357	25.85554
744.765	26.17944
745.173	25.73309
745.58	26.45723
745.988	25.97161
746.396	25.84877
746.803	25.65472
747.211	25.79841
747.618	25.60561
748.025	25.18263
748.433	25.43958
748.84	25.11308
749.247	25.36967
749.654	24.96656
750.061	25.39095
750.468	24.89314
750.875	24.76144
751.282	24.26329
751.689	24.74909
752.096	24.48925
752.502	24.41866
752.909	24.47075
753.316	23.94158
753.722	24.02421
754.129	23.60855
754.535	24.23407
754.941	23.5054
755.348	24.12235
755.754	23.6461
756.16	23.78563
756.566	23.30261
756.972	23.6154
757.378	23.42649
757.784	23.16494
758.19	23.38854
758.596	22.81064
759.002	23.70516
759.408	23.15448
759.813	23.54035
760.219	23.39771
760.624	23.21973
761.03	22.96177
761.435	23.28376
761.841	22.72359
762.246	22.38087
762.651	22.98368
763.057	22.29419
763.462	23.07163
763.867	22.97274
764.272	23.33036
764.677	23.10226
765.082	23.08404
765.487	23.14049
765.892	22.78657
766.296	22.94078
766.701	22.64803
767.106	22.64847
767.51	22.20395
767.915	22.75235
768.319	22.2258
768.724	22.51046
769.128	21.98351
769.532	21.94049
769.936	22.22059
770.341	22.01054
770.745	22.42577
771.149	21.89404
771.553	22.4899
771.957	22.2326
772.361	22.06151
772.764	22.27405
773.168	21.5378
773.572	22.12941
773.976	21.95115
774.379	22.27622
774.783	21.93946
775.186	21.72422
775.59	22.14281
775.993	21.26449
776.396	21.91964
776.8	21.2397
777.203	21.84115
777.606	21.77303
778.009	21.56043
778.412	22.2718
778.815	21.36791
779.218	21.95946
779.621	21.65711
780.023	21.77741
780.426	21.94525
780.829	21.68453
781.231	21.87042
781.634	21.69359
782.036	21.45471
782.439	21.6615
782.841	21.6096
783.244	21.79523
783.646	21.424
784.048	21.91698
784.45	21.24482
784.852	21.97997
785.254	22.05252
785.656	21.52741
786.058	21.73843
786.46	21.43213
786.862	21.75901
787.264	21.92522
787.665	21.64906
788.067	21.66034
788.468	21.53606
788.87	21.94734
789.271	21.35688
789.673	21.69411
790.074	21.88438
790.475	21.66969
790.877	21.88215
791.278	21.4611
791.679	21.77568
792.08	21.85744
792.481	21.68401
792.882	22.10007
793.283	21.57726
793.683	21.88186
794.084	21.72634
794.485	21.5685
794.886	21.69742
795.286	21.26128
795.687	22.06144
796.087	21.52755
796.487	21.39937
796.888	21.71901
797.288	20.96273
797.688	21.48749
798.088	21.33726
798.489	21.45052
798.889	21.69836
799.289	21.48968
799.689	22.18276
800.088	21.4677
800.488	21.73952
800.888	22.07619
801.288	21.69886
801.687	22.10594
802.087	21.39846
802.486	21.67056
802.886	21.7981
803.285	21.26437
803.685	22.05203
804.084	21.73865
804.483	21.96585
804.882	21.60756
805.281	21.1738
805.68	21.98683
806.079	21.9423
806.478	21.82487
806.877	21.62352
807.276	21.62892
807.675	21.7728
808.074	21.34463
808.472	21.58298
808.871	21.53346
809.269	21.46628
809.668	22.00254
810.066	22.79002
810.465	22.11245
810.863	22.38446
811.261	21.50506
811.659	21.79355
812.057	22.23856
812.455	21.48816
812.853	22.0288
813.251	21.77491
813.649	21.51936
814.047	21.53978
814.445	21.05856
814.843	21.63174
815.24	21.92528
815.638	21.27465
816.035	21.68591
816.433	21.44455
816.83	21.53133
817.228	22.06693
817.625	21.47605
818.022	21.6996
818.419	21.4319
818.816	21.31407
819.213	21.71156
819.61	21.54946
820.007	21.99235
820.404	21.82205
820.801	21.84911
821.198	22.33261
821.595	22.11217
821.991	21.87276
822.388	22.69023
822.784	22.55323
823.181	22.99177
823.577	23.5563
823.974	23.03701
824.37	23.25342
824.766	22.97938
825.162	22.40637
825.558	22.91378
825.954	22.33295
826.35	22.23319
826.746	22.67549
827.142	22.49324
827.538	22.8054
827.934	23.06545
828.33	22.44593
828.725	23.12646
829.121	22.79168
829.516	22.60427
829.912	22.82354
830.307	22.29011
830.703	22.51727
831.098	22.1286
831.493	22.04313
831.888	22.17775
832.283	21.8886
832.678	21.69647
833.073	22.40196
833.468	22.15972
833.863	22.25893
834.258	22.70708
834.653	22.65789
835.048	22.81365
835.442	22.86889
835.837	22.59832
836.231	22.91226
836.626	22.78889
837.02	22.78066
837.415	22.91904
837.809	23.00812
838.203	22.58558
838.597	22.6253
838.991	22.13904
839.385	21.77496
839.779	22.46388
840.173	22.36584
840.567	22.96625
840.961	23.43324
841.355	22.82017
841.748	23.19655
842.142	23.49649
842.536	23.1426
842.929	23.29516
843.323	23.44897
843.716	23.30173
844.109	23.74087
844.503	23.71433
844.896	23.31956
845.289	23.9171
845.682	23.62418
846.075	23.7772
846.468	23.06193
846.861	22.85737
847.254	23.59465
847.647	23.90509
848.04	23.8211
848.432	23.46226
848.825	23.85223
849.217	23.51237
849.61	23.68626
850.002	23.81026
850.395	24.24544
850.787	23.54852
851.179	24.01612
851.572	23.64234
851.964	24.03462
852.356	23.73219
852.748	23.56358
853.14	23.46115
853.532	23.54926
853.924	23.69174
854.315	23.82638
854.707	23.74133
855.099	24.33494
855.491	23.94346
855.882	23.54139
856.274	23.22208
856.665	24.05651
857.056	24.0008
857.448	23.45339
857.839	24.31876
858.23	23.70691
858.621	23.23357
859.012	23.94497
859.403	23.90331
859.794	24.06702
860.185	24.38966
860.576	23.89679
860.967	24.18472
861.358	23.46716
861.748	23.35197
862.139	23.97046
862.529	23.53789
862.92	23.01604
863.31	24.00716
863.701	23.57505
864.091	23.81119
864.481	23.57216
864.872	24.10435
865.262	23.29114
865.652	23.90627
866.042	23.5232
866.432	23.52884
866.822	24.07273
867.211	24.20485
867.601	23.11516
867.991	24.00866
868.381	24.2741
868.77	23.79124
869.16	23.52938
869.549	23.87305
869.939	22.4102
870.328	23.17073
870.717	23.74313
871.106	23.11917
871.496	23.0853
871.885	23.46736
872.274	22.99319
872.663	23.64174
873.052	23.66033
873.441	23.62072
873.829	22.91087
874.218	23.42285
874.607	23.21016
874.996	23.00681
875.384	23.54079
875.773	22.32191
876.161	22.79769
876.549	22.96679
876.938	22.87203
877.326	22.40209
877.714	22.76416
878.102	22.71044
878.491	22.45769
878.879	23.09871
879.267	22.65046
879.655	22.27833
880.042	23.42075
880.43	23.26224
880.818	23.13627
881.206	23.69158
881.593	23.39099
881.981	23.26868
882.368	23.62129
882.756	23.43259
883.143	23.46956
883.53	23.18614
883.918	23.00785
884.305	23.04449
884.692	22.89102
885.079	23.11667
885.466	23.32555
885.853	23.3422
886.24	23.19005
886.627	22.81893
887.014	22.71014
887.4	23.20573
887.787	22.90974
888.174	23.17496
888.56	23.65261
888.947	23.64227
889.333	23.09089
889.719	23.45618
890.106	23.32381
890.492	23.23125
890.878	23.35235
891.264	22.85109
891.65	22.41874
892.036	22.31817
892.422	23.14758
892.808	22.5162
893.194	22.21457
893.58	22.71301
893.965	23.02519
894.351	22.05077
894.736	23.28324
895.122	22.69861
895.507	22.92002
895.893	23.31926
896.278	22.82116
896.663	23.32938
897.049	23.07092
897.434	23.18729
897.819	22.93502
898.204	23.10324
898.589	23.26618
898.974	22.91374
899.359	22.44644
899.743	23.24889
900.128	23.42161
900.513	22.51577
900.897	22.81432
901.282	22.63784
901.667	22.66023
902.051	22.91176
902.435	23.08265
902.82	22.42141
903.204	22.20918
903.588	22.58698
903.972	22.31093
904.356	21.94651
904.74	22.95199
905.124	23.49336
905.508	23.11223
905.892	22.44721
906.276	23.08726
906.659	22.77275
907.043	22.4388
907.427	22.80617
907.81	23.0588
908.194	23.32938
908.577	23.02621
908.96	23.01566
909.344	22.94053
909.727	22.02128
910.11	22.74336
910.493	22.74779
910.876	22.4178
911.259	22.59438
911.642	22.43645
912.025	22.26355
912.408	22.27298
912.79	22.05984
913.173	22.13635
913.556	21.80983
913.938	22.91572
914.321	22.24782
914.703	21.81281
915.086	21.73708
915.468	22.22596
915.85	22.00035
916.232	21.89444
916.614	22.72253
916.996	22.32025
917.378	22.08255
917.76	22.08025
918.142	22.24474
918.524	22.28422
918.906	21.97193
919.288	22.17702
919.669	22.08492
920.051	21.42954
920.432	22.09414
920.814	22.49646
921.195	22.58124
921.577	21.95827
921.958	23.31623
922.339	22.35416
922.72	22.49162
923.101	22.18482
923.482	22.69203
923.863	23.05573
924.244	22.14994
924.625	23.05514
925.006	22.91298
925.387	21.58457
925.767	22.32814
926.148	22.47621
926.528	22.71429
926.909	21.67849
927.289	22.84668
927.67	23.44894
928.05	21.41793
928.43	23.52981
928.81	22.35432
929.191	22.71822
929.571	22.18071
929.951	21.89923
930.331	22.54809
930.71	21.79499
931.09	21.87891
931.47	22.39644
931.85	22.02428
932.229	22.23345
932.609	21.66701
932.988	22.48395
933.368	22.23504
933.747	21.73539
934.127	22.51261
934.506	22.87223
934.885	20.74633
935.264	21.41597
935.643	23.10266
936.022	21.63627
936.401	20.50243
936.78	22.76973
937.159	20.95136
937.538	21.15562
937.916	21.57028
938.295	22.21594
938.674	22.13533
939.052	21.7567
939.431	21.77643
939.809	21.8367
940.187	22.21269
940.566	22.41431
940.944	20.32413
941.322	21.87642
941.7	21.15509
942.078	22.71698
942.456	22.71072
942.834	21.93548
943.212	20.15338
943.59	22.27938
943.968	22.53395
944.345	20.70228
944.723	20.12459
945.1	20.00779
945.478	22.1555
945.855	19.44146
946.233	20.89195
946.61	22.72407
946.987	21.04716
947.365	21.04474
947.742	21.05882
948.119	22.63118
948.496	21.70373
948.873	21.45331
949.25	21.0325
949.626	21.9255
950.003	21.07968
950.38	21.77664
950.756	22.58631
951.133	20.91922
951.51	21.29083
951.886	20.85999
952.262	21.52205
952.639	21.06485
953.015	22.37468
953.391	22.08229
953.767	21.23933
954.143	20.98623
954.519	21.80322
954.895	21.50007
955.271	22.05711
955.647	21.20895
956.023	21.9414
956.399	21.37475
956.774	21.82764
957.15	19.91811
957.525	22.13434
957.901	20.97617
958.276	19.55452
958.652	20.4166
959.027	20.56216
959.402	20.57085
959.777	21.17133
960.152	20.07885
960.527	20.77087
960.902	21.2876
961.277	20.89038
961.652	22.7868
962.027	20.25969
962.402	21.19671
962.776	22.44949
963.151	20.21677
963.525	19.71199
963.9	22.51934
964.274	22.08129
964.649	21.47438
965.023	19.99016
965.397	20.69296
965.771	22.78156
966.146	20.87525
966.52	18.94686
966.894	19.47544
967.268	20.99226
967.641	19.27626
968.015	20.63716
968.389	20.09077
968.763	19.50052
969.136	18.42753
969.51	21.64156
969.883	20.12247
970.257	21.04238
970.63	21.07184
971.003	20.92081
971.377	22.30874
971.75	21.82486
972.123	21.45497
972.496	20.17534
972.869	21.95536
973.242	21.73797
973.615	18.22663
973.988	20.85874
974.36	20.62559
974.733	20.19934
975.106	21.05282
975.478	18.10288
975.851	20.13201
976.223	21.90464
976.596	18.58961
976.968	18.75345
977.34	20.19168
977.712	19.23725
978.085	19.81033
978.457	19.15545
978.829	19.41911
979.201	18.67418
979.573	18.5521
979.944	19.52998
980.316	19.36966
980.688	19.06765
981.059	19.89556
981.431	21.08005
981.803	20.28428
982.174	20.73404
982.545	20.25079
982.917	18.90802
983.288	21.47062
983.659	20.93603
984.03	20.28502
984.401	19.35588
984.772	18.51641
985.143	18.8913
985.514	20.12181
985.885	18.92466
986.256	19.94383
986.627	20.06623
986.997	19.66066
987.368	19.82406
987.738	19.77664
988.109	17.81172
988.479	18.08805
988.85	18.50998
989.22	18.81833
989.59	18.78175
989.96	20.73328
990.33	18.80721
990.7	18.73395
991.07	19.29454
991.44	19.47679
991.81	18.93881
992.18	18.52705
992.549	19.21621
992.919	17.68801
993.289	19.09742
993.658	17.19179
994.028	19.5671
994.397	19.83649
994.766	18.87197
995.136	19.93994
995.505	17.23364
995.874	20.17824
996.243	17.39915
996.612	18.83924
996.981	18.40117
997.35	21.44966
997.719	18.37948
998.088	19.55706
998.456	17.88315
998.825	21.21437
999.194	20.3275
999.562	21.12286
999.931	21.51993
1000.299	19.06966
1000.667	17.19318
1001.036	20.93374
1001.404	20.97212
1001.772	19.85656
1002.14	19.97913
1002.508	21.05578
1002.876	20.86116
1003.244	22.78764
1003.612	20.35742
1003.98	21.83037
1004.347	21.38539
1004.715	19.54955
1005.083	17.36768
1005.45	17.79191
1005.818	20.3764
1006.185	20.47411
1006.552	19.28424
1006.92	15.56846
1007.287	18.98877
1007.654	17.44812
1008.021	16.85269
1008.388	21.61505
1008.755	19.37815
1009.122	16.52806
1009.489	21.87997
1009.856	23.84341
1010.222	20.00642
1010.589	19.57839
1010.956	22.60099
1011.322	20.71334
1011.689	19.54329
1012.055	20.53662
1012.421	19.77347
1012.788	18.91755
1013.154	21.84068
1013.52	20.23683
1013.886	15.70322
1014.252	21.14646
1014.618	21.96519
1014.984	23.6819
1015.35	17.00115
1015.716	21.23686
1016.081	21.81815
1016.447	21.08136
1016.813	18.09094
1017.178	17.77777
1017.544	17.55202
1017.909	18.68852
1018.274	24.1376
1018.64	18.59898
1019.005	18.50612
1019.37	24.64028
1019.735	20.52156
1020.1	22.25359
1020.465	21.55702
1020.83	23.40396
1021.195	26.9619
1021.56	19.25683
1021.924	28.09835
1022.289	27.67438
1022.654	17.87063
1023.018	19.70743
1023.383	18.71126
1023.747	10.85905
1024.111	14.54747
1024.476	28.47421
1024.84	18.1491
1025.204	27.98641
1025.568	18.89775
1025.932	16.31731
1026.296	27.88149
1026.66	22.93666
1027.024	20.42037
1027.387	23.57381
1027.751	20.94176
1028.115	26.00388
1028.478	23.18621
1028.842	17.78908
1029.205	27.93115
1029.569	22.63034
1029.932	12.74664
1030.295	22.35283
1030.659	20.33011
1031.022	20.41819
1031.385	28.26679
1031.748	15.16137
1032.111	20.28804
1032.474	23.72866
1032.836	13.27415
1033.199	19.14195
1033.562	23.32716
1033.924	28.4385
1034.287	24.2481
1034.65	30.99995
1035.012	24.2649
1035.374	27.73198
1035.737	34.86093
1036.099	19.08085
1036.461	19.68462
1036.823	7.55013
1037.185	31.56517
1037.547	22.53846
1037.909	32.77366
1038.271	10.65665
1038.633	32.11742
1038.995	21.96878
1039.356	8.18678
1039.718	32.59672
1040.08	31.94346
1040.441	14.80742
1040.803	24.61704
1041.164	9.32388
1041.525	27.85219
1041.886	30.14032
1042.248	30.05526
1042.609	32.96272
1042.97	26.2852
1043.331	37.14248
1043.692	22.2133
1044.053	10.03571
1044.413	27.02651
1044.774	15.9626
1045.135	26.89794
1045.495	24.99186
1045.856	26.84412
1046.216	10.7921
1046.577	16.01728
1046.937	23.85078
1047.298	31.89573
