Data from 1016water_Reflection__16__20-41-25-191.txt Node

Date: Thu Oct 16 20:41:25 AST 2025
User: lin
Spectrometer: SR600411
Trigger mode: 0
Integration Time (sec): 5.601500E-2
Scans to average: 5
Nonlinearity correction enabled: true
Boxcar width: 0
Storing dark spectrum: false
XAxis mode: Wavelengths
Number of Pixels in Spectrum: 2048
>>>>>Begin Spectral Data<<<<<
187.982	62.87314
188.456	53.41026
188.93	52.20888
189.403	72.09713
189.877	57.51642
190.351	59.3777
190.825	62.48737
191.298	54.78774
191.772	59.65919
192.246	77.58506
192.719	46.83589
193.193	46.45488
193.666	58.28655
194.139	49.49009
194.613	51.45713
195.086	74.43428
195.559	60.99778
196.033	72.26141
196.506	63.11123
196.979	51.68722
197.452	62.30654
197.925	58.01349
198.398	72.02819
198.871	59.44878
199.344	65.69122
199.816	58.23755
200.289	57.18076
200.762	59.49259
201.235	56.59088
201.707	68.28389
202.18	43.59627
202.652	60.47113
203.125	44.19615
203.597	56.94632
204.07	76.29438
204.542	53.362
205.014	32.76992
205.486	68.27159
205.959	40.77356
206.431	42.34472
206.903	59.45238
207.375	62.30164
207.847	54.92261
208.319	68.5139
208.791	24.9948
209.263	44.20589
209.734	66.41199
210.206	64.70127
210.678	84.7968
211.15	64.7005
211.621	32.58672
212.093	68.91264
212.564	51.84651
213.036	64.80993
213.507	56.83748
213.979	51.08811
214.45	39.41815
214.921	79.46066
215.392	20.71711
215.864	50.92057
216.335	51.4859
216.806	48.7744
217.277	62.63314
217.748	60.31148
218.219	60.71031
218.69	55.62175
219.161	44.44004
219.631	45.60843
220.102	73.78754
220.573	76.02869
221.043	38.53716
221.514	72.16109
221.985	67.67248
222.455	47.68588
222.926	57.13776
223.396	44.22568
223.866	32.78155
224.337	17.64412
224.807	46.35821
225.277	60.48999
225.747	56.61102
226.217	46.95084
226.687	43.27706
227.157	39.28174
227.627	11.10953
228.097	47.85746
228.567	74.75343
229.037	66.34155
229.507	54.71177
229.977	25.61526
230.446	73.39028
230.916	49.10159
231.386	73.03024
231.855	45.37231
232.325	65.82798
232.794	52.88659
233.263	50.76278
233.733	61.41135
234.202	68.88507
234.671	53.60346
235.14	64.09901
235.61	61.01138
236.079	26.66492
236.548	86.20485
237.017	58.4689
237.486	44.99412
237.955	25.31349
238.424	54.94059
238.892	69.4399
239.361	40.213
239.83	55.73174
240.299	75.3682
240.767	43.01908
241.236	58.64884
241.704	61.05662
242.173	64.99639
242.641	40.69356
243.109	69.22693
243.578	80.59494
244.046	94.49429
244.514	88.76229
244.982	35.82786
245.451	95.77408
245.919	44.73311
246.387	67.77388
246.855	72.08959
247.323	55.11188
247.791	67.94535
248.258	44.54951
248.726	76.38632
249.194	58.9232
249.662	77.60963
250.129	47.36279
250.597	55.16673
251.064	74.50596
251.532	51.50862
251.999	50.87154
252.467	56.24688
252.934	36.78757
253.401	91.48791
253.869	54.317
254.336	47.05462
254.803	79.58869
255.27	58.53264
255.737	39.99595
256.204	80.76603
256.671	62.36127
257.138	76.38631
257.605	111.32208
258.072	37.68626
258.539	84.46334
259.005	48.64498
259.472	86.04446
259.939	77.54764
260.405	11.76366
260.872	69.99667
261.338	65.70959
261.805	44.34877
262.271	48.35461
262.737	53.84103
263.203	57.72727
263.67	60.82016
264.136	71.26084
264.602	30.76594
265.068	55.80975
265.534	34.68947
266	30.60812
266.466	48.47995
266.932	31.39167
267.398	77.68179
267.864	43.74376
268.329	62.25921
268.795	48.7336
269.261	97.25989
269.726	76.38631
270.192	63.6303
270.657	35.33957
271.123	44.63737
271.588	67.3873
272.053	43.47489
272.519	50.3874
272.984	66.15096
273.449	78.33131
273.914	75.99639
274.379	72.72338
274.844	58.48546
275.309	41.75385
275.774	72.27321
276.239	49.57393
276.704	63.05794
277.169	69.04406
277.634	36.07804
278.098	64.64198
278.563	36.69222
279.028	24.70274
279.492	31.02956
279.957	59.08669
280.421	49.99693
280.886	57.42084
281.35	100
281.814	57.14014
282.279	58.45841
282.743	86.95497
283.207	62.4948
283.671	63.92885
284.135	19.19615
284.599	62.13112
285.063	66.34155
285.527	56.95818
285.991	53.32889
286.455	67.0551
286.919	45.70912
287.382	59.82348
287.846	39.99524
288.31	55.55159
288.773	65.27454
289.237	49.99633
289.7	70.75037
290.164	53.84103
290.627	59.20688
291.09	31.67883
291.554	107.6938
292.017	59.59124
292.48	42.98545
292.943	22.85347
293.406	73.49077
293.869	81.60661
294.332	73.58082
294.795	6.17191
295.258	77.66637
295.721	74.75343
296.184	91.52452
296.646	48.71408
297.109	51.34769
297.572	80.94981
298.034	101.51535
298.497	58.81782
298.959	62.17221
299.422	97.05844
299.884	52.33116
300.346	25.2841
300.809	85.07294
301.271	53.05638
301.733	72.05611
302.195	44.57425
302.657	51.03691
303.119	27.27013
303.581	27.46893
304.043	30.48436
304.505	67.00606
304.967	43.61244
305.429	48.50083
305.891	117.19006
306.352	18.83849
306.814	70.83038
307.275	96.60979
307.737	53.44541
308.198	63.35275
308.66	80.94981
309.121	116.90419
309.583	79.99762
310.044	47.82267
310.505	41.50433
310.966	103.70432
311.428	66.66296
311.889	39.44438
312.35	91.30254
312.811	42.6294
313.272	92.15613
313.733	89.47226
314.193	162.26672
314.654	55.90944
315.115	85.39106
315.576	61.7246
316.036	88.17012
316.497	65.81926
316.957	59.99477
317.418	117.77965
317.878	49.56685
318.339	73.41466
318.799	54.54005
319.259	48.38403
319.72	38.56814
320.18	54.45877
320.64	61.10772
321.1	63.63232
321.56	71.71319
322.02	64.41835
322.48	38.45788
322.94	49.42098
323.4	58.50611
323.86	70.5311
324.319	54.16312
324.779	43.74688
325.239	48.64315
325.698	76.62064
326.158	46.90958
326.617	121.87838
327.077	57.62426
327.536	37.49628
327.996	106.8974
328.455	51.7605
328.914	70.92672
329.373	75.99729
329.832	45.8286
330.292	102.89896
330.751	75.94651
331.21	28.27885
331.668	113.04549
332.127	48.71408
332.586	114.58492
333.045	38.13979
333.504	53.3769
333.962	5.76867
334.421	114.70816
334.88	68.84987
335.338	30.8366
335.797	21.33084
336.255	43.23964
336.714	80.76683
337.172	57.97744
337.63	45.09553
338.088	90.13959
338.547	72.28586
339.005	16.86516
339.463	63.05794
339.921	48.88444
340.379	75.30565
340.837	59.77822
341.295	30.64255
341.753	61.637
342.21	64.19384
342.668	36.58159
343.126	66.23035
343.584	46.84137
344.041	53.39298
344.499	67.8852
344.956	79.99746
345.414	77.41613
345.871	42.15193
346.328	45.56574
346.786	69.48657
347.243	52.57253
347.7	55.2206
348.157	61.10603
348.614	72.49684
349.071	71.62552
349.528	78.70011
349.985	45.68395
350.442	71.29192
350.899	80.43191
351.356	67.46627
351.812	34.22928
352.269	66.9677
352.726	88.8873
353.182	16.04722
353.639	71.16666
354.095	75.85891
354.552	26.41101
355.008	76.22513
355.465	56.43072
355.921	38.08934
356.377	76.69539
356.833	42.52452
357.289	29.56047
357.745	78.15797
358.201	45.38315
358.657	28.56661
359.113	87.62678
359.569	34.17017
360.025	55.18725
360.481	54.73781
360.937	66.83671
361.392	65.28648
361.848	84.61103
362.303	79.38507
362.759	60.53179
363.214	59.45063
363.67	51.41819
364.125	57.2951
364.581	48.80633
365.036	58.68462
365.491	58.34949
365.946	56.90281
366.401	50.56092
366.856	58.24224
367.311	51.14709
367.766	62.91679
368.221	54.15608
368.676	56.72333
369.131	53.925
369.586	56.8387
370.041	48.98853
370.495	55.91226
370.95	61.34604
371.404	52.78199
371.859	55.9985
372.313	54.62429
372.768	56.21229
373.222	55.31763
373.676	55.80667
374.131	57.3926
374.585	54.77679
375.039	52.66099
375.493	56.16527
375.947	53.04434
376.401	52.52277
376.855	55.15372
377.309	56.53631
377.763	55.8358
378.217	54.89367
378.67	54.02985
379.124	58.28451
379.578	58.31806
380.031	55.99442
380.485	56.26042
380.938	55.73937
381.392	52.22566
381.845	53.95318
382.299	53.65291
382.752	55.3344
383.205	54.36567
383.658	54.94918
384.111	56.48769
384.564	54.34448
385.018	54.35179
385.471	55.88671
385.923	53.77905
386.376	54.98859
386.829	55.68256
387.282	56.51076
387.735	56.11375
388.187	56.56564
388.64	56.05815
389.093	55.55953
389.545	55.43497
389.998	56.5437
390.45	54.86909
390.902	55.09284
391.355	55.35785
391.807	56.38379
392.259	55.83302
392.711	56.30251
393.163	56.03454
393.615	56.15679
394.068	56.31068
394.519	56.058
394.971	55.20729
395.423	54.80349
395.875	56.35963
396.327	56.36401
396.779	56.06806
397.23	56.44215
397.682	55.82173
398.133	55.28857
398.585	56.04724
399.036	55.18997
399.488	54.83522
399.939	55.93938
400.39	54.98845
400.842	54.80655
401.293	54.23973
401.744	55.22387
402.195	54.28375
402.646	54.25707
403.097	54.04736
403.548	54.8635
403.999	53.99959
404.45	53.7492
404.9	54.16924
405.351	53.97899
405.802	53.49535
406.253	53.70134
406.703	53.55065
407.154	53.05644
407.604	52.82511
408.055	52.42797
408.505	52.43154
408.955	53.09391
409.406	52.29737
409.856	52.56563
410.306	52.45048
410.756	52.07903
411.206	52.3221
411.656	51.64299
412.106	50.98775
412.556	51.36369
413.006	51.65231
413.456	50.959
413.905	50.29931
414.355	50.95736
414.805	50.93869
415.254	50.08787
415.704	50.65923
416.153	50.119
416.603	49.67144
417.052	49.59401
417.502	49.85879
417.951	49.83522
418.4	49.48016
418.849	48.84767
419.298	49.00845
419.748	48.79165
420.197	48.46694
420.646	48.26427
421.094	48.11226
421.543	47.91943
421.992	48.36822
422.441	47.59473
422.89	48.07884
423.338	47.69147
423.787	47.67256
424.236	47.42139
424.684	46.89721
425.133	46.97546
425.581	47.22747
426.029	46.95939
426.478	46.68352
426.926	46.77326
427.374	46.39551
427.822	46.73843
428.27	45.75232
428.718	46.39527
429.166	46.33279
429.614	45.72056
430.062	46.09507
430.51	45.94586
430.958	46.19385
431.406	45.35099
431.853	46.41618
432.301	45.84292
432.749	46.02917
433.196	45.43952
433.644	45.23633
434.091	45.52873
434.538	45.10703
434.986	45.18668
435.433	45.53641
435.88	44.85771
436.327	45.13751
436.775	45.21617
437.222	44.90167
437.669	45.04038
438.116	44.84212
438.563	44.61369
439.009	45.20492
439.456	44.68621
439.903	45.20607
440.35	45.20384
440.796	45.08909
441.243	44.95858
441.689	44.67023
442.136	44.76607
442.582	44.86598
443.029	44.74537
443.475	45.12034
443.921	44.67155
444.368	44.65648
444.814	44.43783
445.26	44.66515
445.706	44.67063
446.152	45.23495
446.598	44.48929
447.044	44.48189
447.49	44.56405
447.936	44.47453
448.381	44.95207
448.827	45.21569
449.273	45.26048
449.718	45.0051
450.164	45.20666
450.61	44.46486
451.055	44.88117
451.5	44.86831
451.946	45.20825
452.391	44.97141
452.836	45.35172
453.282	45.20843
453.727	45.17535
454.172	45.37391
454.617	45.35014
455.062	45.62996
455.507	45.85666
455.952	45.77303
456.396	45.62703
456.841	45.60579
457.286	45.62395
457.731	46.00297
458.175	46.08882
458.62	46.21244
459.064	46.13439
459.509	46.04538
459.953	45.94592
460.398	46.37036
460.842	46.62052
461.286	45.97362
461.73	46.73826
462.174	46.93189
462.619	46.96696
463.063	47.50232
463.507	47.44966
463.951	47.57218
464.394	47.50607
464.838	47.48792
465.282	47.74975
465.726	47.85838
466.17	48.02365
466.613	47.70823
467.057	47.74664
467.5	48.39909
467.944	48.49584
468.387	48.86756
468.831	48.76038
469.274	49.06147
469.717	49.49752
470.16	50.26662
470.603	50.49258
471.047	50.22023
471.49	50.3914
471.933	50.46379
472.376	50.84428
472.818	51.16935
473.261	50.89446
473.704	50.77475
474.147	51.22841
474.59	51.36753
475.032	51.56498
475.475	52.24363
475.917	52.11101
476.36	51.59211
476.802	52.02576
477.245	52.33483
477.687	52.91859
478.129	52.54043
478.571	53.38127
479.013	53.27174
479.456	53.45475
479.898	54.03677
480.34	53.50842
480.782	53.90557
481.224	54.19353
481.665	53.67785
482.107	54.03766
482.549	54.1822
482.991	54.00811
483.432	54.19574
483.874	54.43486
484.315	54.69186
484.757	54.68669
485.198	54.78348
485.64	54.66302
486.081	54.94592
486.522	55.47486
486.963	55.72131
487.405	55.17406
487.846	55.88885
488.287	55.79399
488.728	55.69166
489.169	56.2063
489.61	56.13178
490.05	56.29717
490.491	56.69275
490.932	56.15534
491.373	56.07317
491.813	56.89844
492.254	56.10132
492.694	56.53616
493.135	56.69967
493.575	56.32186
494.016	56.24335
494.456	56.29482
494.896	56.77327
495.336	56.77149
495.777	57.15579
496.217	56.75624
496.657	56.82013
497.097	56.72893
497.537	56.53396
497.977	57.10073
498.416	57.00356
498.856	57.45163
499.296	57.45857
499.736	57.45154
500.175	57.37439
500.615	57.41214
501.054	57.76652
501.494	58.08093
501.933	57.70996
502.373	58.32527
502.812	58.47755
503.251	58.48524
503.69	58.50359
504.129	59.13189
504.569	59.16714
505.008	59.16934
505.447	59.32347
505.886	59.62918
506.324	59.55632
506.763	59.50958
507.202	59.85205
507.641	59.72254
508.079	60.05504
508.518	60.4911
508.957	61.03493
509.395	60.57452
509.834	61.36927
510.272	61.0826
510.71	61.43614
511.149	61.39423
511.587	61.72712
512.025	61.52578
512.463	61.80668
512.901	61.84433
513.339	62.51624
513.777	62.88501
514.215	62.612
514.653	62.547
515.091	63.24682
515.529	63.73216
515.966	63.18027
516.404	63.70712
516.842	63.99693
517.279	63.89906
517.717	63.88817
518.154	63.97743
518.592	64.31974
519.029	64.69866
519.466	65.06118
519.904	65.23067
520.341	65.18999
520.778	65.59301
521.215	65.82225
521.652	65.94488
522.089	65.60512
522.526	66.10221
522.963	66.18607
523.399	66.72353
523.836	66.83478
524.273	67.35131
524.71	67.1195
525.146	67.87817
525.583	67.91201
526.019	67.74095
526.456	67.6247
526.892	68.45397
527.328	68.47963
527.765	68.52506
528.201	68.71502
528.637	69.42646
529.073	69.30131
529.509	69.65656
529.945	69.53857
530.381	69.4188
530.817	70.19124
531.253	69.8835
531.689	69.95449
532.124	70.41553
532.56	70.60737
532.996	70.73873
533.431	70.98195
533.867	71.11444
534.302	71.37896
534.738	71.91001
535.173	71.20373
535.608	71.44996
536.044	72.40327
536.479	71.62101
536.914	71.97814
537.349	71.84885
537.784	72.01399
538.219	71.53497
538.654	71.90963
539.089	71.90837
539.524	71.84355
539.959	72.05234
540.393	72.32694
540.828	72.64163
541.263	73.08804
541.697	72.4824
542.132	72.60216
542.566	72.6042
543.001	72.22244
543.435	72.82997
543.869	72.7377
544.303	73.35887
544.738	73.04767
545.172	72.62235
545.606	71.8796
546.04	72.90572
546.474	72.3894
546.908	72.84145
547.342	72.51812
547.775	72.51593
548.209	72.15137
548.643	73.04502
549.077	73.12797
549.51	72.33703
549.944	71.88034
550.377	72.17837
550.811	71.90654
551.244	71.6232
551.677	71.83999
552.111	71.49801
552.544	71.15645
552.977	70.65569
553.41	70.74104
553.843	70.21502
554.276	69.86813
554.709	69.3732
555.142	69.56676
555.575	69.69289
556.008	69.60655
556.44	69.15745
556.873	68.95195
557.306	68.63509
557.738	68.28137
558.171	68.26018
558.603	68.1789
559.036	67.71853
559.468	67.32311
559.9	67.44455
560.333	66.86339
560.765	67.32177
561.197	66.7322
561.629	66.33623
562.061	66.54723
562.493	66.58432
562.925	66.79745
563.357	65.87343
563.789	65.56858
564.22	65.68433
564.652	65.47157
565.084	65.25463
565.515	65.30637
565.947	64.746
566.378	64.49339
566.81	64.09391
567.241	64.1585
567.672	63.9619
568.104	64.19406
568.535	63.88137
568.966	63.65298
569.397	62.77777
569.828	62.66142
570.259	62.51876
570.69	62.15845
571.121	61.72352
571.552	61.3851
571.983	61.43934
572.414	60.99665
572.844	60.58294
573.275	60.62522
573.705	60.41186
574.136	60.53577
574.566	60.04873
574.997	60.14954
575.427	60.32891
575.857	59.81139
576.288	59.63428
576.718	59.89767
577.148	59.42663
577.578	59.40091
578.008	59.18529
578.438	59.08847
578.868	58.68374
579.298	57.94071
579.728	57.99233
580.157	57.81754
580.587	57.88089
581.017	57.30104
581.446	56.98182
581.876	56.61463
582.305	56.41446
582.735	56.45205
583.164	56.4311
583.593	56.14993
584.023	55.66045
584.452	56.01333
584.881	55.52325
585.31	55.58795
585.739	55.44018
586.168	55.17126
586.597	54.73041
587.026	54.31739
587.455	54.13156
587.884	54.3732
588.312	54.17723
588.741	53.3551
589.17	53.3738
589.598	53.84475
590.027	52.87049
590.455	52.97098
590.884	52.8888
591.312	52.41238
591.74	52.51132
592.168	52.36735
592.597	52.1828
593.025	52.4282
593.453	52.22181
593.881	51.77292
594.309	51.40797
594.737	51.54779
595.165	51.19018
595.592	51.23934
596.02	51.10086
596.448	50.85526
596.875	50.62442
597.303	50.34184
597.73	50.30675
598.158	50.46231
598.585	50.50522
599.013	50.38356
599.44	49.84213
599.867	49.64021
600.294	49.86401
600.722	49.30302
601.149	49.32018
601.576	49.69865
602.003	49.2746
602.43	48.92342
602.856	48.92666
603.283	48.81842
603.71	48.60265
604.137	48.90613
604.563	49.12508
604.99	48.91285
605.416	48.41457
605.843	48.71437
606.269	48.71429
606.696	48.6637
607.122	48.24633
607.548	48.4266
607.975	48.13936
608.401	47.66705
608.827	47.82331
609.253	47.70185
609.679	47.57126
610.105	47.33143
610.531	47.68232
610.956	47.51417
611.382	47.44992
611.808	47.59704
612.234	46.85343
612.659	47.06062
613.085	47.02215
613.51	47.05336
613.936	46.99145
614.361	47.2674
614.786	47.24405
615.212	47.13947
615.637	46.97693
616.062	46.60912
616.487	46.92892
616.912	46.82742
617.337	46.82929
617.762	46.98835
618.187	46.86882
618.612	46.97591
619.037	46.50317
619.461	46.56577
619.886	46.56251
620.311	46.84117
620.735	46.80242
621.16	46.92526
621.584	46.88555
622.008	46.79604
622.433	46.71194
622.857	46.64444
623.281	46.28511
623.705	46.47398
624.13	46.79141
624.554	46.19147
624.978	46.19856
625.402	46.19519
625.826	46.15634
626.249	46.02252
626.673	45.93058
627.097	46.08474
627.521	45.71049
627.944	46.13062
628.368	46.46216
628.791	46.19752
629.215	46.15268
629.638	46.42463
630.061	46.62207
630.485	46.64327
630.908	46.23508
631.331	46.3222
631.754	46.63726
632.177	47.03612
632.6	47.06781
633.023	47.45792
633.446	47.50516
633.869	47.70502
634.292	48.17792
634.715	48.16579
635.137	48.1261
635.56	48.12163
635.982	48.55716
636.405	48.41942
636.827	48.58262
637.25	48.58175
637.672	48.01544
638.094	48.64819
638.517	48.50189
638.939	48.36795
639.361	48.84535
639.783	49.18676
640.205	49.00089
640.627	49.13414
641.049	49.40925
641.471	49.44359
641.893	49.15437
642.314	49.77357
642.736	49.40024
643.158	49.56796
643.579	49.99182
644.001	50.03945
644.422	50.66609
644.844	50.60068
645.265	50.05868
645.686	50.49396
646.107	50.52656
646.529	50.96224
646.95	50.78937
647.371	50.74081
647.792	51.18037
648.213	51.3715
648.634	51.48757
649.055	51.62915
649.475	51.68493
649.896	52.11189
650.317	51.72126
650.737	52.36746
651.158	52.06689
651.578	52.87443
651.999	52.89011
652.419	51.97788
652.84	52.89077
653.26	52.60366
653.68	53.28923
654.1	53.15944
654.521	53.40648
654.941	53.50539
655.361	53.9178
655.781	54.20977
656.2	54.23214
656.62	54.1869
657.04	54.22486
657.46	53.8123
657.879	54.3993
658.299	54.67688
658.719	54.30246
659.138	54.15876
659.558	55.16458
659.977	55.52558
660.396	55.33786
660.816	55.68905
661.235	55.35142
661.654	55.43159
662.073	55.21609
662.492	55.87702
662.911	55.44938
663.33	55.82559
663.749	55.58698
664.168	57.08281
664.587	57.46751
665.006	57.62877
665.424	56.65506
665.843	57.01653
666.261	57.44046
666.68	56.98323
667.098	57.26302
667.517	57.59894
667.935	57.26586
668.353	57.17739
668.772	57.39914
669.19	56.86905
669.608	56.8566
670.026	57.16869
670.444	57.50976
670.862	57.58231
671.28	57.44364
671.698	57.65951
672.115	57.61494
672.533	56.82642
672.951	57.63461
673.368	57.44258
673.786	57.26362
674.203	57.18342
674.621	57.79171
675.038	56.84117
675.456	57.29338
675.873	56.67978
676.29	57.39754
676.707	57.21759
677.124	57.16325
677.541	57.15085
677.958	57.36188
678.375	56.98994
678.792	56.77629
679.209	56.72738
679.626	56.97185
680.043	56.63357
680.459	56.56522
680.876	56.62116
681.292	56.40731
681.709	55.89124
682.125	55.95166
682.542	55.82728
682.958	55.31165
683.374	55.80574
683.79	55.25302
684.207	55.02785
684.623	54.81722
685.039	55.34351
685.455	54.97863
685.871	54.65113
686.286	54.92688
686.702	54.43493
687.118	54.36962
687.534	54.75842
687.949	53.9316
688.365	53.78026
688.781	53.69261
689.196	53.28755
689.611	53.31294
690.027	53.3212
690.442	52.71852
690.857	52.76951
691.273	52.42635
691.688	52.27963
692.103	51.77851
692.518	51.93359
692.933	51.98125
693.348	51.86961
693.763	51.16897
694.177	50.65616
694.592	50.98615
695.007	50.61446
695.421	51.07412
695.836	50.30859
696.25	50.67138
696.665	50.29041
697.079	50.06815
697.494	49.78982
697.908	49.767
698.322	49.55834
698.736	49.40936
699.151	48.90656
699.565	48.74487
699.979	48.60199
700.393	48.52706
700.806	48.14719
701.22	48.33594
701.634	48.31897
702.048	47.46675
702.461	46.8721
702.875	46.51019
703.289	46.73784
703.702	46.48658
704.116	45.89075
704.529	45.54677
704.942	45.69754
705.356	45.48641
705.769	45.01881
706.182	44.32552
706.595	44.43212
707.008	44.44575
707.421	44.39367
707.834	43.7208
708.247	44.08218
708.66	43.15495
709.072	43.44083
709.485	43.25461
709.898	43.35664
710.31	43.05349
710.723	43.03021
711.135	42.14573
711.548	42.27849
711.96	41.4163
712.373	41.51072
712.785	40.90614
713.197	41.10248
713.609	40.51591
714.021	40.03301
714.433	39.12598
714.845	39.80809
715.257	39.10422
715.669	38.89071
716.081	38.94032
716.493	38.41579
716.904	38.31013
717.316	38.05811
717.727	38.18023
718.139	38.05007
718.55	38.12878
718.962	37.65303
719.373	37.23173
719.784	36.7141
720.196	36.52639
720.607	36.36792
721.018	35.87082
721.429	35.92253
721.84	35.60899
722.251	35.26422
722.662	35.47318
723.073	35.01611
723.483	35.14521
723.894	34.33803
724.305	34.41151
724.715	34.21912
725.126	34.74791
725.536	34.0548
725.947	33.69404
726.357	33.43674
726.768	33.37393
727.178	32.96389
727.588	32.8665
727.998	32.75369
728.408	32.23402
728.818	32.13644
729.228	32.27904
729.638	32.23962
730.048	31.80272
730.458	31.62386
730.868	31.42355
731.277	31.20548
731.687	30.90444
732.097	30.90433
732.506	30.73048
732.916	30.49765
733.325	30.39834
733.734	30.40481
734.144	29.97307
734.553	30.2158
734.962	29.44201
735.371	29.51706
735.78	29.16278
736.189	29.26777
736.598	29.19861
737.007	28.88189
737.416	28.32273
737.825	28.73658
738.233	28.14042
738.642	28.32176
739.051	27.47811
739.459	28.029
739.868	27.48127
740.276	27.69939
740.684	27.34928
741.093	27.06571
741.501	26.97694
741.909	26.74235
742.317	27.24999
742.725	26.27032
743.133	26.6615
743.541	26.15418
743.949	26.67686
744.357	25.92182
744.765	26.34537
745.173	26.05509
745.58	26.38548
745.988	26.08347
746.396	25.83697
746.803	25.51693
747.211	25.52882
747.618	25.51089
748.025	25.38747
748.433	25.40059
748.84	25.35018
749.247	25.55583
749.654	24.87055
750.061	25.44968
750.468	24.81272
750.875	25.13055
751.282	24.68445
751.689	25.09008
752.096	24.44628
752.502	24.45207
752.909	24.31861
753.316	24.19801
753.722	24.2924
754.129	23.88332
754.535	24.21585
754.941	23.78424
755.348	24.30868
755.754	23.54628
756.16	24.28465
756.566	23.38493
756.972	23.91744
757.378	23.61977
757.784	23.44443
758.19	23.633
758.596	23.38192
759.002	24.0036
759.408	23.16598
759.813	23.82508
760.219	23.19264
760.624	23.48008
761.03	22.85921
761.435	22.99504
761.841	22.66533
762.246	22.50445
762.651	22.87177
763.057	22.75682
763.462	23.27207
763.867	23.16124
764.272	23.4742
764.677	23.69641
765.082	23.23268
765.487	23.41539
765.892	22.97966
766.296	23.31912
766.701	22.45091
767.106	22.85906
767.51	21.97081
767.915	22.86777
768.319	22.61609
768.724	22.24102
769.128	22.46536
769.532	22.14102
769.936	22.38145
770.341	21.91012
770.745	22.71345
771.149	22.17713
771.553	22.33738
771.957	22.25392
772.361	22.4498
772.764	22.49678
773.168	21.85773
773.572	22.41424
773.976	22.03637
774.379	22.12137
774.783	21.81398
775.186	21.99366
775.59	22.28837
775.993	21.93293
776.396	22.0434
776.8	21.8581
777.203	22.14537
777.606	21.77303
778.009	21.79763
778.412	22.14349
778.815	21.94442
779.218	22.3465
779.621	21.59884
780.023	21.86842
780.426	21.88474
780.829	21.5022
781.231	21.97337
781.634	21.91434
782.036	22.36953
782.439	21.36003
782.841	21.85741
783.244	21.88239
783.646	21.63849
784.048	22.34601
784.45	21.83471
784.852	22.08381
785.254	22.3183
785.656	21.63602
786.058	22.04811
786.46	21.67574
786.862	21.76691
787.264	21.67866
787.665	21.43552
788.067	21.7832
788.468	21.36289
788.87	21.93098
789.271	21.62526
789.673	21.827
790.074	21.92371
790.475	21.56447
790.877	22.19284
791.278	21.79795
791.679	21.80005
792.08	22.04455
792.481	21.83523
792.882	22.69516
793.283	21.65165
793.683	22.04858
794.084	21.7292
794.485	21.6313
794.886	21.86653
795.286	21.55904
795.687	21.69725
796.087	21.76196
796.487	21.75446
796.888	21.826
797.288	20.91305
797.688	21.57103
798.088	22.04012
798.489	21.66683
798.889	21.92667
799.289	21.25612
799.689	22.20632
800.088	21.62195
800.488	22.05728
800.888	22.08532
801.288	21.74229
801.687	22.34867
802.087	21.82656
802.486	21.95192
802.886	21.92152
803.285	21.5832
803.685	22.07483
804.084	21.89539
804.483	21.50443
804.882	22.25073
805.281	21.38459
805.68	22.4429
806.079	21.77812
806.478	21.81813
806.877	22.05318
807.276	21.65903
807.675	21.9728
808.074	21.71772
808.472	21.69965
808.871	22.41169
809.269	21.88015
809.668	22.48571
810.066	22.42561
810.465	21.88699
810.863	22.3323
811.261	22.15646
811.659	22.14476
812.057	22.31486
812.455	22.01692
812.853	22.13354
813.251	22.23539
813.649	22.0594
814.047	22.00944
814.445	21.37964
814.843	21.96827
815.24	21.86295
815.638	21.49466
816.035	22.20067
816.433	21.7456
816.83	21.89462
817.228	22.30046
817.625	21.63978
818.022	21.87301
818.419	21.71574
818.816	21.92346
819.213	22.16184
819.61	21.65236
820.007	22.24445
820.404	22.17651
820.801	21.98446
821.198	22.6083
821.595	22.34658
821.991	22.14034
822.388	22.94557
822.784	22.77048
823.181	23.07047
823.577	23.61664
823.974	23.39362
824.37	23.70167
824.766	23.34318
825.162	22.904
825.558	23.03275
825.954	22.54597
826.35	22.77472
826.746	23.18242
827.142	22.92815
827.538	23.29144
827.934	23.13461
828.33	22.92697
828.725	23.18147
829.121	22.82134
829.516	22.46163
829.912	23.09904
830.307	22.43136
830.703	22.65901
831.098	22.47841
831.493	22.29807
831.888	22.32683
832.283	22.12845
832.678	21.84893
833.073	22.56177
833.468	22.41778
833.863	22.47518
834.258	22.94339
834.653	23.01876
835.048	22.80693
835.442	23.24349
835.837	23.0712
836.231	23.47471
836.626	23.2474
837.02	22.85094
837.415	23.30573
837.809	23.43754
838.203	22.93288
838.597	22.92354
838.991	22.53349
839.385	22.4521
839.779	23.30301
840.173	22.91573
840.567	23.01405
840.961	23.43904
841.355	23.049
841.748	23.3483
842.142	23.27617
842.536	23.53901
842.929	23.82115
843.323	24.27906
843.716	23.54415
844.109	23.50451
844.503	23.48657
844.896	24.07718
845.289	24.27535
845.682	23.41794
846.075	23.91969
846.468	22.92451
846.861	23.49622
847.254	23.99218
847.647	24.43627
848.04	24.03249
848.432	24.09826
848.825	23.87309
849.217	23.61874
849.61	24.78614
850.002	23.73746
850.395	24.37397
850.787	24.4707
851.179	23.50363
851.572	23.74221
851.964	23.45913
852.356	23.77851
852.748	24.07045
853.14	23.50769
853.532	24.36467
853.924	23.93391
854.315	23.88894
854.707	23.47416
855.099	24.23188
855.491	24.01385
855.882	23.67421
856.274	23.1599
856.665	24.26061
857.056	23.89169
857.448	24.11666
857.839	24.77275
858.23	23.94489
858.621	23.63788
859.012	24.18495
859.403	23.62954
859.794	23.30809
860.185	24.1719
860.576	24.57963
860.967	23.09331
861.358	24.49549
861.748	23.97466
862.139	23.57129
862.529	23.79055
862.92	23.58858
863.31	23.59624
863.701	23.75348
864.091	23.83217
864.481	24.28586
864.872	23.86041
865.262	23.29779
865.652	24.1356
866.042	23.74198
866.432	23.43855
866.822	24.82768
867.211	25.17288
867.601	23.17649
867.991	24.09956
868.381	23.76959
868.77	22.7259
869.16	23.4194
869.549	24.19202
869.939	24.10503
870.328	23.40187
870.717	23.79668
871.106	23.36997
871.496	23.36008
871.885	24.06026
872.274	23.68479
872.663	23.41467
873.052	23.94521
873.441	23.59274
873.829	23.54466
874.218	23.33157
874.607	22.91189
874.996	23.27503
875.384	23.80773
875.773	22.7242
876.161	22.99365
876.549	23.13996
876.938	22.87203
877.326	22.62621
877.714	23.31829
878.102	22.86058
878.491	22.82767
878.879	22.88673
879.267	22.54709
879.655	22.91554
880.042	23.52776
880.43	23.74958
880.818	23.25984
881.206	23.79278
881.593	23.82463
881.981	23.59838
882.368	23.79402
882.756	23.68391
883.143	23.88566
883.53	23.39017
883.918	23.8048
884.305	23.20332
884.692	23.20938
885.079	23.61176
885.466	23.77655
885.853	23.69806
886.24	23.48711
886.627	23.56523
887.014	23.26928
887.4	23.81945
887.787	23.07816
888.174	23.32648
888.56	23.5088
888.947	23.76498
889.333	23.19205
889.719	23.95825
890.106	23.10374
890.492	23.60844
890.878	23.41071
891.264	22.86171
891.65	22.68084
892.036	22.76331
892.422	23.40103
892.808	22.82057
893.194	22.66207
893.58	23.15775
893.965	22.99002
894.351	22.68775
894.736	23.24179
895.122	23.41534
895.507	23.19123
895.893	23.38944
896.278	23.06637
896.663	23.62344
897.049	22.62186
897.434	24.01505
897.819	23.45614
898.204	22.59526
898.589	23.0675
898.974	23.33831
899.359	22.35632
899.743	23.08575
900.128	22.89445
900.513	22.7535
900.897	22.65321
901.282	23.3558
901.667	22.72384
902.051	22.73528
902.435	23.22319
902.82	22.6564
903.204	22.20137
903.588	22.85749
903.972	22.38354
904.356	22.83726
904.74	22.80865
905.124	23.76203
905.508	22.88961
905.892	22.76063
906.276	23.37075
906.659	23.5682
907.043	23.23579
907.427	23.07944
907.81	23.50165
908.194	23.39254
908.577	23.47173
908.96	23.84239
909.344	23.23922
909.727	22.76236
910.11	23.37271
910.493	23.30293
910.876	23.17231
911.259	22.23284
911.642	23.32671
912.025	22.41642
912.408	22.18833
912.79	22.33037
913.173	22.59821
913.556	22.44021
913.938	23.36354
914.321	22.54904
914.703	21.83368
915.086	22.18585
915.468	22.64428
915.85	22.13762
916.232	22.3423
916.614	22.81381
916.996	22.84632
917.378	22.53836
917.76	22.3263
918.142	22.30195
918.524	22.55754
918.906	22.77678
919.288	22.25388
919.669	22.68992
920.051	21.77624
920.432	22.82229
920.814	22.62011
921.195	22.87292
921.577	22.5254
921.958	22.98617
922.339	22.81214
922.72	22.12405
923.101	22.94284
923.482	23.22714
923.863	22.51292
924.244	22.87871
924.625	22.30212
925.006	21.90057
925.387	22.14327
925.767	23.29815
926.148	22.63756
926.528	22.74149
926.909	22.25562
927.289	22.05774
927.67	22.978
928.05	21.34446
928.43	22.66001
928.81	23.45117
929.191	22.19165
929.571	22.67685
929.951	23.65153
930.331	22.28586
930.71	21.76667
931.09	22.21781
931.47	22.10711
931.85	21.16206
932.229	22.30278
932.609	22.14679
932.988	23.15282
933.368	21.14897
933.747	22.01944
934.127	22.59678
934.506	21.42423
934.885	21.71264
935.264	22.02109
935.643	22.61359
936.022	21.29788
936.401	21.19288
936.78	22.50889
937.159	20.49968
937.538	21.48805
937.916	21.58149
938.295	22.90196
938.674	22.02514
939.052	22.16373
939.431	20.50114
939.809	22.33199
940.187	22.70937
940.566	22.07081
940.944	21.43311
941.322	22.84002
941.7	21.30573
942.078	21.94359
942.456	21.83851
942.834	23.23213
943.212	22.23946
943.59	21.69984
943.968	21.01025
944.345	22.24073
944.723	20.77997
945.1	20.4991
945.478	22.62756
945.855	21.03875
946.233	22.43137
946.61	22.33134
946.987	21.37952
947.365	21.65896
947.742	20.72548
948.119	21.91897
948.496	21.05932
948.873	22.68667
949.25	21.74192
949.626	22.34024
950.003	22.02963
950.38	22.12149
950.756	22.43204
951.133	21.35262
951.51	21.19973
951.886	19.1504
952.262	21.61867
952.639	19.67378
953.015	21.82686
953.391	20.50817
953.767	21.08434
954.143	21.10011
954.519	21.0013
954.895	22.22282
955.271	20.25984
955.647	21.87682
956.023	21.22826
956.399	20.77023
956.774	23.02367
957.15	20.6059
957.525	22.1637
957.901	20.7344
958.276	19.86579
958.652	19.39458
959.027	21.18405
959.402	18.00082
959.777	19.01199
960.152	21.77722
960.527	20.48553
960.902	21.39328
961.277	20.16683
961.652	22.3312
962.027	21.49434
962.402	21.94073
962.776	20.24823
963.151	22.05063
963.525	19.12552
963.9	19.24411
964.274	20.73835
964.649	19.23428
965.023	18.95891
965.397	20.20587
965.771	20.38384
966.146	22.3169
966.52	18.10866
966.894	20.76579
967.268	20.36525
967.641	18.58799
968.015	20.92065
968.389	22.74428
968.763	20.18909
969.136	19.64892
969.51	21.45286
969.883	20.54841
970.257	20.33906
970.63	20.50633
971.003	18.86136
971.377	21.417
971.75	19.76143
972.123	20.66664
972.496	20.29992
972.869	19.67213
973.242	20.52701
973.615	19.98145
973.988	22.01579
974.36	19.5512
974.733	20.76325
975.106	20.33886
975.478	19.25178
975.851	20.13201
976.223	20.25993
976.596	19.77885
976.968	21.35276
977.34	19.9719
977.712	19.57446
978.085	19.24668
978.457	19.46518
978.829	19.85804
979.201	18.74632
979.573	20.24511
979.944	19.18979
980.316	18.23209
980.688	19.16788
981.059	20.63883
981.431	20.41616
981.803	19.93762
982.174	22.37338
982.545	19.97607
982.917	20.95201
983.288	21.71337
983.659	20.59658
984.03	21.01902
984.401	18.65572
984.772	18.20024
985.143	18.80519
985.514	18.84487
985.885	20.76871
986.256	21.48237
986.627	19.84752
986.997	20.37328
987.368	19.69328
987.738	20.7292
988.109	19.98405
988.479	18.06643
988.85	19.89628
989.22	19.69366
989.59	19.72458
989.96	19.48534
990.33	18.37956
990.7	20.09288
991.07	19.09111
991.44	19.40345
991.81	18.70128
992.18	18.29027
992.549	19.88729
992.919	17.43542
993.289	18.54291
993.658	18.78617
994.028	19.38607
994.397	19.81705
994.766	19.17887
995.136	18.09411
995.505	19.63758
995.874	19.11064
996.243	17.84654
996.612	21.42638
996.981	19.30612
997.35	20.19048
997.719	19.24528
998.088	18.12104
998.456	19.59176
998.825	21.47815
999.194	17.09974
999.562	21.53472
999.931	20.38136
1000.299	21.04036
1000.667	19.28179
1001.036	21.29231
1001.404	18.2642
1001.772	20.56045
1002.14	19.58491
1002.508	18.96015
1002.876	19.37417
1003.244	20.48966
1003.612	19.12289
1003.98	22.83686
1004.347	17.08108
1004.715	19.93948
1005.083	16.96358
1005.45	19.49642
1005.818	18.1254
1006.185	17.93852
1006.552	21.61072
1006.92	19.73606
1007.287	20.69659
1007.654	19.51377
1008.021	21.39015
1008.388	20.77069
1008.755	16.63644
1009.122	16.65776
1009.489	21.09337
1009.856	21.83418
1010.222	18.5482
1010.589	19.19175
1010.956	20.76557
1011.322	20.11357
1011.689	19.13163
1012.055	20.93435
1012.421	22.57998
1012.788	16.42728
1013.154	23.30698
1013.52	20.62176
1013.886	20.73398
1014.252	16.96099
1014.618	22.85398
1014.984	20.104
1015.35	19.71903
1015.716	16.33432
1016.081	23.42195
1016.447	22.84673
1016.813	16.85919
1017.178	16.53707
1017.544	23.86095
1017.909	22.67111
1018.274	24.24445
1018.64	20.25804
1019.005	17.4583
1019.37	23.92232
1019.735	19.87195
1020.1	21.08878
1020.465	26.647
1020.83	16.83791
1021.195	23.32081
1021.56	24.82507
1021.924	26.90858
1022.289	31.11549
1022.654	24.68044
1023.018	20.39307
1023.383	23.26833
1023.747	19.72918
1024.111	13.1451
1024.476	23.98614
1024.84	33.57129
1025.204	18.78101
1025.568	21.14353
1025.932	26.79537
1026.296	21.33067
1026.66	34.30912
1027.024	25.1797
1027.387	22.32184
1027.751	22.93666
1028.115	18.26589
1028.478	20.31302
1028.842	23.72004
1029.205	22.55066
1029.569	23.97501
1029.932	24.35764
1030.295	23.0104
1030.659	26.94496
1031.022	20.14949
1031.385	33.24497
1031.748	24.58179
1032.111	18.5345
1032.474	12.77576
1032.836	25.29842
1033.199	24.11483
1033.562	23.81835
1033.924	25.95312
1034.287	11.53165
1034.65	26.65337
1035.012	24.84274
1035.374	19.06461
1035.737	26.96121
1036.099	25.13926
1036.461	25.74265
1036.823	14.02217
1037.185	40.5419
1037.547	16.33161
1037.909	20.6459
1038.271	17.63925
1038.633	26.57888
1038.995	20.50403
1039.356	12.96275
1039.718	26.07645
1040.08	40.96474
1040.441	22.21209
1040.803	17.90266
1041.164	19.39471
1041.525	9.91903
1041.886	30.14032
1042.248	30.73078
1042.609	28.30421
1042.97	40.62547
1043.331	30.02902
1043.692	9.95706
1044.053	18.065
1044.413	36.28396
1044.774	21.28406
1045.135	26.89794
1045.495	12.26805
1045.856	18.71939
1046.216	28.40201
1046.577	3.86607
1046.937	31.46367
1047.298	38.08543
