Data from 1016water_Reflection__23__20-42-19-171.txt Node

Date: Thu Oct 16 20:42:19 AST 2025
User: lin
Spectrometer: SR600411
Trigger mode: 0
Integration Time (sec): 5.601500E-2
Scans to average: 5
Nonlinearity correction enabled: true
Boxcar width: 0
Storing dark spectrum: false
XAxis mode: Wavelengths
Number of Pixels in Spectrum: 2048
>>>>>Begin Spectral Data<<<<<
187.982	51.18834
188.456	56.83512
188.93	65.17305
189.403	59.16961
189.877	60.99166
190.351	63.74498
190.825	55.13373
191.298	59.98812
191.772	74.47645
192.246	69.28445
192.719	47.28633
193.193	56.55601
193.666	61.26554
194.139	63.49081
194.613	60.6489
195.086	72.95242
195.559	46.19575
196.033	60.10938
196.506	58.39079
196.979	62.71204
197.452	62.02321
197.925	56.8143
198.398	65.57479
198.871	56.5151
199.344	58.63887
199.816	62.12153
200.289	56.10154
200.762	48.74836
201.235	59.61
201.707	71.69908
202.18	48.8287
202.652	66.45969
203.125	58.68902
203.597	54.95949
204.07	72.82559
204.542	57.85656
205.014	42.76904
205.486	61.28158
205.959	53.62247
206.431	49.40335
206.903	66.88539
207.375	49.22433
207.847	71.82529
208.319	50.92057
208.791	13.56818
209.263	95.78872
209.734	58.9488
210.206	78.42795
210.678	52.79382
211.15	63.01971
211.621	28.14274
212.093	74.99451
212.564	71.29192
213.036	72.21793
213.507	74.73329
213.979	55.46775
214.45	64.41835
214.921	62.49479
215.392	73.86963
215.864	56.47622
216.335	68.651
216.806	33.32792
217.277	85.71208
217.748	49.2001
218.219	44.04351
218.69	63.56923
219.161	22.21914
219.631	40.34544
220.102	54.47563
220.573	56.19245
221.043	71.87115
221.514	67.00606
221.985	64.64198
222.455	81.53458
222.926	62.85228
223.396	46.14872
223.866	73.76581
224.337	60.77949
224.807	66.35877
225.277	59.25539
225.747	54.40507
226.217	51.29865
226.687	61.93403
227.157	40.47218
227.627	25.92284
228.097	36.74675
228.567	29.12199
229.037	43.26417
229.507	61.31577
229.977	59.49835
230.446	60.5453
230.916	59.81609
231.386	6.74046
231.855	44.53199
232.325	54.99411
232.794	66.11033
233.263	57.68601
233.733	55.11188
234.202	16.66419
234.671	93.81332
235.14	48.71409
235.61	49.1467
236.079	-73.32199
236.548	54.0187
237.017	76.26695
237.486	52.49407
237.955	43.03413
238.424	94.50456
238.892	87.03462
239.361	90.21578
239.83	51.63331
240.299	54.47102
240.767	41.85632
241.236	59.61042
241.704	56.63167
242.173	84.99798
242.641	34.87985
243.109	48.34714
243.578	104.47823
244.046	68.8027
244.514	73.03023
244.982	51.66072
245.451	61.96851
245.919	30.25998
246.387	95.5548
246.855	69.76384
247.323	62.1988
247.791	53.84231
248.258	33.65889
248.726	63.8856
249.194	68.74523
249.662	62.68346
250.129	43.85408
250.597	40.5117
251.064	67.64263
251.532	69.69144
251.999	85.96219
252.467	115.62729
252.934	48.10796
253.401	72.3367
253.869	30.86077
254.336	34.11386
254.803	89.79414
255.27	79.26562
255.737	35.29027
256.204	89.42113
256.671	47.30723
257.138	111.11287
257.605	66.03538
258.072	89.99768
258.539	56.30565
259.005	74.32152
259.472	68.60098
259.939	48.97473
260.405	45.09554
260.872	49.99603
261.338	41.89969
261.805	32.25269
262.271	82.78344
262.737	53.84103
263.203	62.88211
263.67	100
264.136	63.21438
264.602	64.09901
265.068	80.22985
265.534	47.95433
266	69.38363
266.466	10.09923
266.932	53.48413
267.398	76.85524
267.864	67.18191
268.329	43.39106
268.795	57.13708
269.261	83.55966
269.726	66.66349
270.192	52.26619
270.657	54.30464
271.123	49.10159
271.588	53.25633
272.053	59.41699
272.519	61.41135
272.984	27.68973
273.449	63.33057
273.914	48.99505
274.379	60.60137
274.844	64.14611
275.309	46.14936
275.774	64.35184
276.239	70.58334
276.704	103.60443
277.169	79.75922
277.634	77.31621
278.098	91.91773
278.563	28.43597
279.028	38.81952
279.492	74.13352
279.957	26.13299
280.421	91.93457
280.886	70.29285
281.35	55.44059
281.814	64.28316
282.279	50.76601
282.743	65.21429
283.207	44.63737
283.671	64.74857
284.135	35.19434
284.599	80.57933
285.063	66.34155
285.527	54.42649
285.991	72.21864
286.455	42.34883
286.919	58.09017
287.382	64.09723
287.846	53.99508
288.31	106.17389
288.773	76.38631
289.237	62.15871
289.7	59.42889
290.164	69.22638
290.627	59.20688
291.09	39.59917
291.554	95.60364
292.017	69.69283
292.48	52.33115
292.943	57.13776
293.406	44.57425
293.869	80.45706
294.332	66.03302
294.795	29.62628
295.258	74.75343
295.721	73.78246
296.184	116.95147
296.646	57.68853
297.109	64.86152
297.572	53.56728
298.034	59.08774
298.497	62.17933
298.959	79.48214
299.422	86.76316
299.884	85.04403
300.346	67.81233
300.809	41.78782
301.271	58.15854
301.733	98.52922
302.195	43.36945
302.657	58.32871
303.119	72.72468
303.581	64.83105
304.043	65.85
304.505	49.47973
304.967	46.80387
305.429	44.76955
305.891	81.24807
306.352	50.72122
306.814	73.60834
307.275	32.20084
307.737	94.82702
308.198	77.85812
308.66	73.80631
309.121	98.59135
309.583	61.32981
310.044	28.98269
310.505	45.27781
310.966	61.7246
311.428	70.23461
311.889	55.04052
312.35	59.12493
312.811	52.7068
313.272	119.61021
313.733	64.47023
314.193	59.10045
314.654	80.64228
315.115	49.43379
315.576	22.21945
316.036	93.54727
316.497	68.35104
316.957	64.54046
317.418	86.66564
317.878	25.6366
318.339	73.41466
318.799	42.72194
319.259	59.67446
319.72	55.71086
320.18	64.28061
320.64	86.1094
321.1	71.58736
321.56	74.74377
322.02	45.1872
322.48	58.97062
322.94	20.68682
323.4	80.84818
323.86	83.03259
324.319	51.38532
324.779	26.56002
325.239	59.45415
325.698	76.62064
326.158	125.93117
326.617	115.62729
327.077	25.42151
327.536	97.49961
327.996	105.17304
328.455	91.76343
328.914	77.90404
329.373	62.66319
329.832	44.78696
330.292	89.85382
330.751	63.2875
331.21	74.74377
331.668	69.56232
332.127	71.79174
332.586	74.99822
333.045	48.4488
333.504	65.40757
333.962	51.9205
334.421	119.12072
334.88	31.14495
335.338	83.1746
335.797	43.99634
336.255	33.7805
336.714	56.40645
337.172	73.94503
337.63	1.96059
338.088	85.91379
338.547	61.44189
339.005	28.91228
339.463	80.17668
339.921	48.88444
340.379	101.23477
340.837	58.69123
341.295	49.99693
341.753	60.95202
342.21	58.02078
342.668	70.72834
343.126	90.90783
343.584	69.3647
344.041	56.30566
344.499	84.40083
344.956	37.49628
345.414	74.19002
345.871	24.50606
346.328	50.629
346.786	69.48657
347.243	51.54159
347.7	41.78782
348.157	64.80993
348.614	74.99703
349.071	68.07903
349.528	74.99598
349.985	68.09846
350.442	64.80993
350.899	54.3433
351.356	101.20502
351.812	59.45416
352.269	78.89548
352.726	82.71376
353.182	25.92284
353.639	70.26568
354.095	65.51334
354.552	69.80689
355.008	78.68447
355.465	43.55944
355.921	66.66111
356.377	88.34742
356.833	48.27156
357.289	54.77696
357.745	96.55115
358.201	49.63841
358.657	63.8601
359.113	73.19211
359.569	51.89092
360.025	64.2787
360.481	64.22735
360.937	49.72335
361.392	71.16956
361.848	67.44828
362.303	64.11617
362.759	71.88449
363.214	53.5044
363.67	63.79993
364.125	60.75696
364.581	55.89311
365.036	63.46772
365.491	55.5023
365.946	45.58187
366.401	66.74782
366.856	62.14667
367.311	50.2125
367.766	60.67756
368.221	63.2266
368.676	56.49075
369.131	52.82844
369.586	52.43683
370.041	47.73634
370.495	60.03353
370.95	52.51207
371.404	54.4723
371.859	56.60249
372.313	56.05996
372.768	53.49145
373.222	53.31127
373.676	56.67814
374.131	54.5426
374.585	52.89119
375.039	54.39769
375.493	55.65786
375.947	54.65422
376.401	55.94246
376.855	58.34385
377.309	57.0113
377.763	56.41075
378.217	55.59063
378.67	53.87517
379.124	57.73389
379.578	53.40444
380.031	56.48997
380.485	52.00869
380.938	56.02044
381.392	52.97918
381.845	54.81045
382.299	53.122
382.752	54.92429
383.205	55.91026
383.658	53.16284
384.111	54.75084
384.564	54.44344
385.018	55.44248
385.471	55.73374
385.923	55.73851
386.376	54.40479
386.829	55.15886
387.282	54.94674
387.735	56.72374
388.187	56.62929
388.64	54.72338
389.093	56.29209
389.545	56.46766
389.998	55.57003
390.45	55.06362
390.902	55.11597
391.355	54.87821
391.807	56.6228
392.259	55.83302
392.711	55.59584
393.163	56.96416
393.615	57.06449
394.068	56.73137
394.519	56.35044
394.971	56.21661
395.423	55.26514
395.875	56.68876
396.327	55.37045
396.779	56.44447
397.23	56.57444
397.682	55.65287
398.133	55.63738
398.585	55.56418
399.036	55.9501
399.488	55.69166
399.939	55.90208
400.39	55.13543
400.842	55.23247
401.293	54.82808
401.744	54.83618
402.195	55.38451
402.646	54.32518
403.097	53.69674
403.548	53.92733
403.999	54.16779
404.45	54.68811
404.9	53.86177
405.351	54.30354
405.802	54.23114
406.253	53.76777
406.703	53.33832
407.154	53.63394
407.604	53.50622
408.055	53.2591
408.505	52.20768
408.955	53.09862
409.406	52.3438
409.856	52.02414
410.306	52.68238
410.756	52.347
411.206	52.75478
411.656	52.08085
412.106	51.38742
412.556	51.04029
413.006	51.42229
413.456	50.60892
413.905	50.49762
414.355	50.71167
414.805	50.51299
415.254	50.00234
415.704	50.85129
416.153	50.01746
416.603	50.00174
417.052	49.68783
417.502	50.01023
417.951	50.03692
418.4	48.94105
418.849	49.1963
419.298	48.90574
419.748	48.21264
420.197	48.23529
420.646	48.22703
421.094	48.20717
421.543	47.99392
421.992	47.92852
422.441	47.37719
422.89	47.96457
423.338	47.7148
423.787	47.52019
424.236	47.39824
424.684	46.64324
425.133	47.1876
425.581	47.11322
426.029	47.11181
426.478	46.02717
426.926	46.75384
427.374	46.28217
427.822	46.12306
428.27	46.2958
428.718	45.75069
429.166	46.75525
429.614	45.80106
430.062	46.12393
430.51	45.49086
430.958	46.26399
431.406	45.93189
431.853	46.53632
432.301	45.50201
432.749	45.97614
433.196	45.19265
433.644	45.1699
434.091	45.0301
434.538	45.58036
434.986	45.31707
435.433	45.53929
435.88	45.3144
436.327	45.1015
436.775	45.37271
437.222	44.86186
437.669	44.52812
438.116	44.33808
438.563	44.6239
439.009	45.01247
439.456	44.97872
439.903	45.12303
440.35	44.94127
440.796	45.25769
441.243	44.89418
441.689	44.58442
442.136	44.97591
442.582	44.64743
443.029	45.0289
443.475	45.12034
443.921	44.50713
444.368	44.78486
444.814	44.71057
445.26	44.52115
445.706	44.79004
446.152	44.95238
446.598	44.38417
447.044	44.5995
447.49	45.01731
447.936	44.80573
448.381	44.85925
448.827	45.0274
449.273	44.84176
449.718	44.8454
450.164	45.46464
450.61	44.41274
451.055	44.8459
451.5	44.9342
451.946	44.57162
452.391	44.97141
452.836	44.94686
453.282	45.10106
453.727	45.40527
454.172	45.26832
454.617	45.25438
455.062	45.56896
455.507	45.68775
455.952	45.60756
456.396	45.48914
456.841	45.7642
457.286	45.83872
457.731	46.00107
458.175	46.01469
458.62	46.16083
459.064	46.29426
459.509	46.21587
459.953	46.13173
460.398	46.54659
460.842	46.71349
461.286	46.34526
461.73	46.46756
462.174	46.68043
462.619	46.66366
463.063	47.35688
463.507	47.62811
463.951	47.64989
464.394	47.81533
464.838	47.37487
465.282	47.70632
465.726	47.78691
466.17	47.99573
466.613	47.78252
467.057	48.05204
467.5	48.68444
467.944	48.7113
468.387	49.07795
468.831	48.81746
469.274	49.21543
469.717	49.38146
470.16	50.3136
470.603	50.21842
471.047	50.39602
471.49	50.8584
471.933	50.70063
472.376	50.81669
472.818	51.07058
473.261	51.00225
473.704	50.89655
474.147	51.42093
474.59	51.50877
475.032	51.45306
475.475	52.1519
475.917	51.89159
476.36	52.08138
476.802	52.33787
477.245	52.54525
477.687	52.83607
478.129	53.05166
478.571	53.64297
479.013	53.80173
479.456	53.47757
479.898	53.90878
480.34	53.96098
480.782	54.03317
481.224	53.94045
481.665	53.79764
482.107	54.27315
482.549	54.26363
482.991	54.11791
483.432	54.22039
483.874	54.76006
484.315	54.65095
484.757	54.62943
485.198	54.98196
485.64	55.40326
486.081	55.05836
486.522	55.07743
486.963	55.60885
487.405	55.14433
487.846	56.27921
488.287	55.83583
488.728	56.11972
489.169	55.89895
489.61	55.97946
490.05	56.29561
490.491	56.71579
490.932	56.41919
491.373	56.13773
491.813	57.10848
492.254	56.46911
492.694	56.73378
493.135	56.42829
493.575	56.3826
494.016	56.25363
494.456	56.40309
494.896	56.68813
495.336	56.54041
495.777	57.35269
496.217	56.99754
496.657	57.18955
497.097	57.11819
497.537	56.67449
497.977	56.73638
498.416	56.89554
498.856	57.93624
499.296	57.51681
499.736	57.36698
500.175	57.29552
500.615	57.463
501.054	57.79676
501.494	57.5236
501.933	57.79071
502.373	58.09076
502.812	58.64639
503.251	58.80129
503.69	58.54707
504.129	59.12429
504.569	59.52637
505.008	59.50094
505.447	59.0172
505.886	59.36891
506.324	59.29943
506.763	59.89608
507.202	59.5308
507.641	59.78203
508.079	60.2148
508.518	60.57839
508.957	61.0275
509.395	60.48293
509.834	60.99994
510.272	61.39019
510.71	61.82817
511.149	61.22661
511.587	62.18854
512.025	61.95584
512.463	61.85363
512.901	61.66861
513.339	61.82501
513.777	63.03622
514.215	63.16935
514.653	62.55551
515.091	63.56466
515.529	63.49113
515.966	63.11129
516.404	64.31898
516.842	63.58791
517.279	63.95406
517.717	63.89477
518.154	64.09597
518.592	63.89081
519.029	64.71646
519.466	64.78453
519.904	65.09379
520.341	65.54124
520.778	65.39171
521.215	65.42904
521.652	65.76815
522.089	65.66519
522.526	66.52288
522.963	66.20809
523.399	66.2902
523.836	66.61935
524.273	67.32608
524.71	67.344
525.146	67.83686
525.583	67.8249
526.019	67.83316
526.456	67.63426
526.892	68.57096
527.328	68.71207
527.765	68.42534
528.201	68.92275
528.637	69.35874
529.073	69.0831
529.509	69.68733
529.945	69.90731
530.381	69.16192
530.817	69.52529
531.253	69.66023
531.689	70.02186
532.124	70.15549
532.56	70.32878
532.996	70.63761
533.431	70.60055
533.867	71.34457
534.302	71.13288
534.738	71.48828
535.173	71.30709
535.608	71.76334
536.044	72.10117
536.479	71.64171
536.914	71.96071
537.349	71.58098
537.784	71.77058
538.219	71.85842
538.654	71.51429
539.089	71.68696
539.524	71.85785
539.959	71.8429
540.393	72.61521
540.828	72.34983
541.263	72.51469
541.697	72.79173
542.132	72.35277
542.566	72.30131
543.001	72.41195
543.435	72.22654
543.869	72.36756
544.303	73.05877
544.738	73.42998
545.172	72.98633
545.606	72.28981
546.04	73.04194
546.474	72.90044
546.908	72.35614
547.342	72.72071
547.775	72.58765
548.209	72.29306
548.643	73.08153
549.077	73.04201
549.51	72.69364
549.944	72.14813
550.377	72.47357
550.811	71.90114
551.244	71.81575
551.677	71.74191
552.111	71.67708
552.544	71.36457
552.977	70.65748
553.41	70.45159
553.843	70.35293
554.276	70.38073
554.709	69.9116
555.142	69.87031
555.575	69.85981
556.008	69.65037
556.44	69.07017
556.873	68.56794
557.306	68.67131
557.738	68.06944
558.171	68.28206
558.603	67.65626
559.036	67.78204
559.468	67.02077
559.9	67.38663
560.333	66.95535
560.765	67.12374
561.197	66.84092
561.629	66.26184
562.061	66.18034
562.493	66.63224
562.925	66.43284
563.357	65.79103
563.789	65.89996
564.22	65.28822
564.652	65.06665
565.084	65.09945
565.515	64.92074
565.947	64.27691
566.378	64.48671
566.81	63.99775
567.241	64.12572
567.672	63.83763
568.104	64.04238
568.535	63.93459
568.966	63.51814
569.397	63.12121
569.828	62.67736
570.259	62.42092
570.69	61.79877
571.121	61.4307
571.552	61.18573
571.983	61.37901
572.414	60.86509
572.844	60.97779
573.275	60.38634
573.705	60.4255
574.136	60.4106
574.566	59.89095
574.997	60.17051
575.427	60.26925
575.857	59.78617
576.288	59.55784
576.718	59.77379
577.148	59.26811
577.578	59.21099
578.008	58.83821
578.438	59.10159
578.868	58.61403
579.298	57.78102
579.728	57.87159
580.157	57.44555
580.587	57.12527
581.017	57.38944
581.446	56.63077
581.876	56.41557
582.305	56.67718
582.735	56.05155
583.164	56.07644
583.593	55.98642
584.023	56.01699
584.452	55.84911
584.881	55.26031
585.31	55.34402
585.739	54.70561
586.168	54.69694
586.597	54.94677
587.026	54.13382
587.455	53.9376
587.884	53.91542
588.312	53.86393
588.741	53.19526
589.17	53.11996
589.598	53.14801
590.027	52.68275
590.455	52.56786
590.884	52.35195
591.312	52.09709
591.74	52.07265
592.168	51.88649
592.597	52.20222
593.025	51.66008
593.453	51.87011
593.881	51.43948
594.309	51.1847
594.737	51.36125
595.165	50.99488
595.592	51.17616
596.02	50.64175
596.448	50.76153
596.875	50.33714
597.303	49.90456
597.73	49.93104
598.158	49.9552
598.585	49.93802
599.013	49.61909
599.44	49.29535
599.867	49.28111
600.294	49.88362
600.722	49.34082
601.149	48.91806
601.576	49.26584
602.003	49.28161
602.43	48.37098
602.856	48.37229
603.283	48.34172
603.71	48.26033
604.137	48.3658
604.563	48.51706
604.99	48.22485
605.416	47.977
605.843	48.47543
606.269	47.87953
606.696	48.30489
607.122	47.93782
607.548	47.70537
607.975	47.60346
608.401	47.67846
608.827	47.47031
609.253	47.29415
609.679	47.24164
610.105	46.75864
610.531	46.90618
610.956	47.01381
611.382	46.95678
611.808	46.96199
612.234	46.58699
612.659	46.49431
613.085	46.60036
613.51	46.77975
613.936	46.82667
614.361	46.83221
614.786	46.9737
615.212	46.70459
615.637	46.31675
616.062	46.54391
616.487	46.32135
616.912	46.4551
617.337	46.55366
617.762	46.82973
618.187	46.398
618.612	46.67056
619.037	46.4674
619.461	46.01795
619.886	46.0486
620.311	46.65595
620.735	46.63333
621.16	46.62992
621.584	46.90123
622.008	46.71074
622.433	46.46973
622.857	45.98361
623.281	45.72186
623.705	45.95416
624.13	46.09588
624.554	46.06142
624.978	45.88334
625.402	45.65861
625.826	45.38491
626.249	45.59538
626.673	45.67964
627.097	45.77548
627.521	45.90369
627.944	46.03737
628.368	45.82847
628.791	46.68626
629.215	45.89469
629.638	46.13095
630.061	46.46823
630.485	46.6155
630.908	46.36312
631.331	46.17448
631.754	46.59849
632.177	47.05663
632.6	46.60191
633.023	46.96495
633.446	46.99764
633.869	47.63759
634.292	47.72495
634.715	48.18393
635.137	47.88055
635.56	48.13263
635.982	48.17367
636.405	47.93604
636.827	48.25474
637.25	48.09829
637.672	47.82461
638.094	48.29387
638.517	48.05845
638.939	48.31566
639.361	48.63288
639.783	48.59303
640.205	48.51362
640.627	48.33821
641.049	49.4252
641.471	49.16285
641.893	49.31377
642.314	49.44826
642.736	49.22979
643.158	49.06014
643.579	49.35365
644.001	49.54342
644.422	50.16216
644.844	50.27439
645.265	49.81386
645.686	49.91402
646.107	50.42588
646.529	50.17367
646.95	50.62185
647.371	50.49479
647.792	50.84657
648.213	51.0217
648.634	50.96648
649.055	51.62293
649.475	51.47638
649.896	51.60646
650.317	51.72126
650.737	52.12694
651.158	51.77024
651.578	52.1947
651.999	52.40161
652.419	52.38469
652.84	53.013
653.26	52.91624
653.68	52.92582
654.1	53.08067
654.521	52.6934
654.941	53.7851
655.361	53.75227
655.781	53.95936
656.2	54.23214
656.62	54.24175
657.04	53.97358
657.46	54.39446
657.879	54.25199
658.299	54.64285
658.719	54.38118
659.138	54.33978
659.558	54.5819
659.977	55.19376
660.396	55.05756
660.816	55.58527
661.235	55.59265
661.654	55.62131
662.073	55.09801
662.492	55.58446
662.911	55.32961
663.33	56.09284
663.749	56.09453
664.168	56.75867
664.587	57.02396
665.006	57.04117
665.424	56.81072
665.843	57.13659
666.261	57.68071
666.68	57.37662
667.098	57.13416
667.517	57.50442
667.935	57.45446
668.353	57.39711
668.772	57.31633
669.19	57.33792
669.608	57.25517
670.026	58.14347
670.444	57.65862
670.862	57.39364
671.28	57.41036
671.698	57.26763
672.115	57.2893
672.533	57.01886
672.951	57.89709
673.368	57.71061
673.786	57.36305
674.203	57.60219
674.621	57.7049
675.038	57.0421
675.456	57.90045
675.873	57.23747
676.29	57.01315
676.707	57.47173
677.124	57.11229
677.541	57.66648
677.958	57.70021
678.375	57.5938
678.792	57.11073
679.209	56.85545
679.626	56.76088
680.043	56.66067
680.459	56.76117
680.876	56.3472
681.292	56.69729
681.709	56.25402
682.125	55.57966
682.542	56.14013
682.958	55.76222
683.374	55.74499
683.79	55.64687
684.207	55.3676
684.623	54.77586
685.039	55.20642
685.455	54.91577
685.871	54.8499
686.286	54.75754
686.702	54.40139
687.118	54.85266
687.534	54.64513
687.949	54.39282
688.365	54.03563
688.781	54.29677
689.196	53.8682
689.611	53.89056
690.027	53.28368
690.442	53.21867
690.857	53.14562
691.273	53.00997
691.688	52.62366
692.103	52.14542
692.518	52.24921
692.933	51.8062
693.348	52.54715
693.763	51.74729
694.177	51.4558
694.592	51.63365
695.007	50.81654
695.421	51.18948
695.836	50.68887
696.25	50.84225
696.665	50.48827
697.079	50.49078
697.494	50.29255
697.908	49.77458
698.322	49.69945
698.736	49.54783
699.151	49.50616
699.565	49.0475
699.979	48.7916
700.393	48.66758
700.806	48.5546
701.22	48.23376
701.634	48.40262
702.048	47.75203
702.461	47.07877
702.875	47.17758
703.289	46.67298
703.702	46.97338
704.116	46.40569
704.529	45.75009
704.942	45.90249
705.356	45.50529
705.769	44.79687
706.182	44.91884
706.595	44.78606
707.008	44.60861
707.421	44.45115
707.834	44.43735
708.247	43.84352
708.66	43.37127
709.072	43.61396
709.485	43.141
709.898	43.37952
710.31	42.67647
710.723	42.68324
711.135	42.15615
711.548	42.09884
711.96	41.67872
712.373	41.39315
712.785	40.48759
713.197	41.23527
713.609	40.66559
714.021	40.23035
714.433	39.65878
714.845	39.7264
715.257	39.13997
715.669	38.91913
716.081	38.64986
716.493	38.47479
716.904	38.35904
717.316	38.44598
717.727	38.38601
718.139	38.39537
718.55	38.26671
718.962	37.55886
719.373	37.27657
719.784	37.06706
720.196	36.58959
720.607	36.19004
721.018	36.0451
721.429	35.93866
721.84	35.54047
722.251	35.74728
722.662	35.23022
723.073	35.40863
723.483	35.03743
723.894	34.83007
724.305	34.3698
724.715	34.13475
725.126	34.59429
725.536	34.28176
725.947	33.80792
726.357	33.46799
726.768	33.36481
727.178	32.85462
727.588	32.66747
727.998	32.46318
728.408	32.14387
728.818	32.30513
729.228	32.31819
729.638	32.25963
730.048	31.65089
730.458	31.58844
730.868	31.12258
731.277	31.38539
731.687	31.02839
732.097	31.17489
732.506	30.59363
732.916	30.55266
733.325	30.38007
733.734	30.53279
734.144	29.93858
734.553	30.25792
734.962	29.63773
735.371	29.55821
735.78	29.14459
736.189	29.52628
736.598	28.82163
737.007	29.02994
737.416	28.20671
737.825	28.6008
738.233	28.17523
738.642	28.15405
739.051	27.90531
739.459	27.89472
739.868	27.30424
740.276	27.45428
740.684	27.3241
741.093	27.16122
741.501	26.99845
741.909	26.88417
742.317	27.20586
742.725	26.26662
743.133	26.79059
743.541	26.09576
743.949	26.53492
744.357	25.94645
744.765	26.73077
745.173	25.89118
745.58	26.35833
745.988	25.95198
746.396	26.28135
746.803	25.71968
747.211	25.91738
747.618	25.5918
748.025	25.55099
748.433	25.74187
748.84	25.3639
749.247	25.54603
749.654	24.7295
750.061	25.48883
750.468	24.53031
750.875	24.87665
751.282	24.52379
751.689	24.88625
752.096	24.27441
752.502	24.56801
752.909	24.2949
753.316	24.50027
753.722	24.09825
754.129	23.89544
754.535	24.28266
754.941	23.76579
755.348	24.23291
755.754	23.64814
756.16	24.06439
756.566	23.35482
756.972	23.66939
757.378	23.52013
757.784	23.58322
758.19	23.53912
758.596	22.99518
759.002	23.74197
759.408	23.24457
759.813	23.71423
760.219	23.19264
760.624	23.60285
761.03	23.08234
761.435	23.14448
761.841	22.88766
762.246	22.61865
762.651	23.08854
763.057	22.55204
763.462	23.49196
763.867	23.22368
764.272	23.38558
764.677	23.29748
765.082	23.08552
765.487	23.42818
765.892	22.93181
766.296	23.18152
766.701	22.41455
767.106	23.10946
767.51	22.41466
767.915	23.0105
768.319	22.66114
768.724	22.15123
769.128	22.22773
769.532	21.94499
769.936	22.49702
770.341	21.86676
770.745	22.66972
771.149	21.99931
771.553	21.99492
771.957	22.26103
772.361	21.98723
772.764	22.39993
773.168	21.78933
773.572	22.25819
773.976	21.81332
774.379	22.19244
774.783	22.29039
775.186	21.59338
775.59	22.01547
775.993	21.81447
776.396	22.13821
776.8	21.85545
777.203	22.0693
777.606	22.17149
778.009	22.08673
778.412	22.1353
778.815	21.6247
779.218	22.2257
779.621	21.78199
780.023	21.88773
780.426	21.84074
780.829	21.80797
781.231	21.98729
781.634	21.50921
782.036	21.80989
782.439	21.5275
782.841	21.97289
783.244	22.14112
783.646	21.5256
784.048	22.13429
784.45	21.85157
784.852	22.1624
785.254	22.42743
785.656	21.79757
786.058	22.25371
786.46	21.70281
786.862	21.87225
787.264	21.87946
787.665	21.73887
788.067	22.00771
788.468	21.62501
788.87	21.81884
789.271	21.36875
789.673	22.13393
790.074	21.82784
790.475	21.55696
790.877	22.00025
791.278	21.65471
791.679	21.96795
792.08	21.90421
792.481	21.91646
792.882	22.34489
793.283	21.78614
793.683	21.87612
794.084	21.89518
794.485	21.55138
794.886	22.21048
795.286	21.2585
795.687	21.81498
796.087	21.29594
796.487	21.70529
796.888	21.56265
797.288	21.12561
797.688	21.64622
798.088	21.86224
798.489	21.76362
798.889	21.84675
799.289	21.35246
799.689	21.78534
800.088	21.97208
800.488	21.85753
800.888	22.20105
801.288	21.9129
801.687	22.52524
802.087	21.78563
802.486	21.76967
802.886	21.98799
803.285	21.19353
803.685	21.95106
804.084	22.10769
804.483	21.81976
804.882	22.05509
805.281	21.27082
805.68	22.11089
806.079	21.72787
806.478	21.71699
806.877	21.65682
807.276	21.79287
807.675	21.8928
808.074	21.74414
808.472	21.88969
808.871	22.0187
809.269	21.81392
809.668	21.81397
810.066	22.16306
810.465	21.70404
810.863	22.26385
811.261	21.78556
811.659	21.77422
812.057	22.49609
812.455	21.83743
812.853	22.23194
813.251	21.94717
813.649	21.7753
814.047	22.18754
814.445	21.2746
814.843	21.96827
815.24	21.97912
815.638	21.82478
816.035	22.25085
816.433	21.54067
816.83	21.79531
817.228	21.92272
817.625	21.54068
818.022	21.78227
818.419	21.4894
818.816	21.78331
819.213	22.28904
819.61	21.47823
820.007	22.14948
820.404	22.24999
820.801	21.85552
821.198	22.33585
821.595	22.42676
821.991	22.18318
822.388	22.86422
822.784	22.75979
823.181	23.15854
823.577	23.5048
823.974	23.21444
824.37	23.68973
824.766	23.25459
825.162	22.71277
825.558	23.12102
825.954	22.42714
826.35	22.72002
826.746	22.8168
827.142	22.79518
827.538	22.91704
827.934	22.87276
828.33	22.47013
828.725	23.18984
829.121	22.7364
829.516	22.21244
829.912	22.91096
830.307	22.17007
830.703	22.54488
831.098	22.42473
831.493	22.09593
831.888	22.39121
832.283	21.82265
832.678	22.03059
833.073	22.35195
833.468	22.16702
833.863	22.47518
834.258	22.81348
834.653	22.45175
835.048	22.71963
835.442	23.09511
835.837	22.34555
836.231	22.6723
836.626	22.88659
837.02	22.732
837.415	23.09928
837.809	23.22894
838.203	22.62589
838.597	23.12048
838.991	22.56149
839.385	22.39469
839.779	22.85705
840.173	22.66885
840.567	23.39925
840.961	23.24479
841.355	22.58187
841.748	23.32416
842.142	23.10906
842.536	23.2706
842.929	23.36145
843.323	24.16112
843.716	23.46004
844.109	23.68834
844.503	23.3727
844.896	23.71826
845.289	23.65874
845.682	23.41794
846.075	23.87013
846.468	23.49922
846.861	23.48983
847.254	23.4904
847.647	24.17402
848.04	24.00521
848.432	24.08458
848.825	23.90787
849.217	23.95206
849.61	24.24336
850.002	24.32727
850.395	23.63315
850.787	24.50094
851.179	23.81262
851.572	23.80368
851.964	23.56654
852.356	23.95606
852.748	24.07825
853.14	24.36127
853.532	23.64243
853.924	22.92637
854.315	23.89676
854.707	23.27773
855.099	23.50268
855.491	23.7636
855.882	24.18994
856.274	24.00731
856.665	25.06935
857.056	24.1333
857.448	24.04559
857.839	24.44399
858.23	23.50734
858.621	24.21337
859.012	23.92949
859.403	23.53569
859.794	23.83467
860.185	24.59188
860.576	23.47491
860.967	24.2001
861.358	24.09933
861.748	23.41271
862.139	23.84242
862.529	23.18124
862.92	23.48581
863.31	23.17819
863.701	23.84628
864.091	23.37753
864.481	23.51727
864.872	23.8333
865.262	22.70624
865.652	23.93248
866.042	23.94792
866.432	23.31601
866.822	23.84248
867.211	23.95185
867.601	23.13969
867.991	24.56626
868.381	24.06634
868.77	23.1908
869.16	23.84201
869.549	23.71359
869.939	23.94937
870.328	23.78167
870.717	23.41111
871.106	23.68486
871.496	23.44823
871.885	23.67872
872.274	23.63967
872.663	23.67629
873.052	24.04493
873.441	23.51812
873.829	23.32733
874.218	23.26638
874.607	23.20176
874.996	23.6995
875.384	24.04377
875.773	22.6291
876.161	22.74269
876.549	23.14637
876.938	22.64933
877.326	22.39399
877.714	23.36186
878.102	22.71258
878.491	22.39111
878.879	22.98722
879.267	22.81272
879.655	22.32907
880.042	23.20776
880.43	23.25189
880.818	22.86229
881.206	23.68718
881.593	23.52242
881.981	23.19563
882.368	23.36672
882.756	23.54227
883.143	23.46604
883.53	23.22977
883.918	23.42678
884.305	23.08342
884.692	22.76198
885.079	23.26724
885.466	23.15674
885.853	23.45931
886.24	23.72092
886.627	23.12632
887.014	23.09786
887.4	23.42212
887.787	22.80371
888.174	23.1552
888.56	23.52934
888.947	23.45999
889.333	23.06561
889.719	23.06704
890.106	23.4522
890.492	22.80293
890.878	23.54567
891.264	23.38952
891.65	22.6069
892.036	22.53911
892.422	23.01512
892.808	22.99453
893.194	22.66432
893.58	22.95984
893.965	23.21276
894.351	22.23272
894.736	23.16304
895.122	23.03084
895.507	22.8943
895.893	23.65265
896.278	23.03134
896.663	23.38469
897.049	22.9181
897.434	23.57439
897.819	23.06349
898.204	23.23497
898.589	23.58414
898.974	22.98865
899.359	22.88426
899.743	22.94908
900.128	22.91216
900.513	22.46735
900.897	22.76207
901.282	23.27828
901.667	23.20659
902.051	22.87394
902.435	23.28594
902.82	22.63976
903.204	22.36154
903.588	22.55562
903.972	22.53291
904.356	22.5192
904.74	22.49439
905.124	23.52134
905.508	23.14933
905.892	22.6194
906.276	23.32095
906.659	23.37034
907.043	22.75568
907.427	23.18066
907.81	23.28021
908.194	23.22028
908.577	22.92388
908.96	24.08924
909.344	23.64378
909.727	22.88799
910.11	23.69701
910.493	23.54625
910.876	22.40563
911.259	23.03635
911.642	23.35929
912.025	22.56421
912.408	22.53636
912.79	22.18053
913.173	22.63069
913.556	22.72462
913.938	23.25091
914.321	22.38823
914.703	21.90466
915.086	22.09362
915.468	22.59872
915.85	21.95895
916.232	22.30497
916.614	22.78085
916.996	22.58325
917.378	22.28944
917.76	22.43785
918.142	22.77044
918.524	22.61914
918.906	22.23597
919.288	22.47997
919.669	22.83633
920.051	21.96256
920.432	23.01133
920.814	22.31982
921.195	23.00947
921.577	22.77969
921.958	23.93523
922.339	22.70644
922.72	22.50632
923.101	22.20013
923.482	22.6763
923.863	22.45705
924.244	22.87871
924.625	22.6236
925.006	23.2906
925.387	22.07343
925.767	22.76415
926.148	22.31487
926.528	22.72335
926.909	23.19029
927.289	21.78542
927.67	22.96877
928.05	21.78532
928.43	22.31405
928.81	23.3489
929.191	23.20793
929.571	21.80407
929.951	22.23291
930.331	22.85719
930.71	22.21973
931.09	22.20813
931.47	22.94625
931.85	21.46926
932.229	22.39192
932.609	21.7895
932.988	23.64685
933.368	21.78838
933.747	20.4733
934.127	21.71304
934.506	21.64453
934.885	20.70522
935.264	21.87245
935.643	22.75926
936.022	22.26189
936.401	21.42994
936.78	21.9247
937.159	21.36009
937.538	20.98942
937.916	21.81692
938.295	22.417
938.674	22.80879
939.052	21.15895
939.431	20.87305
939.809	22.34575
940.187	22.12756
940.566	22.05588
940.944	21.03261
941.322	21.69679
941.7	21.60701
942.078	22.52791
942.456	21.542
942.834	20.72676
943.212	21.27654
943.59	23.52922
943.968	21.66321
944.345	21.25678
944.723	20.85488
945.1	21.51965
945.478	22.1555
945.855	20.68582
946.233	21.74506
946.61	22.59911
946.987	22.86667
947.365	21.09738
947.742	21.60275
948.119	22.50654
948.496	22.17403
948.873	22.02771
949.25	23.1446
949.626	20.66494
950.003	21.29632
950.38	20.43195
950.756	22.72343
951.133	22.50854
951.51	23.00399
951.886	21.74259
952.262	21.42542
952.639	21.22385
953.015	21.13708
953.391	21.9121
953.767	20.61939
954.143	22.35299
954.519	21.44942
954.895	21.81325
955.271	22.23187
955.647	20.97778
956.023	22.89236
956.399	19.89101
956.774	21.71639
957.15	20.63455
957.525	23.74928
957.901	20.49263
958.276	22.54316
958.652	21.05543
959.027	21.05313
959.402	21.09146
959.777	18.34769
960.152	19.66297
960.527	21.87663
960.902	22.52063
961.277	20.71811
961.652	21.84059
962.027	20.92991
962.402	20.52361
962.776	22.80459
963.151	20.21677
963.525	18.53908
963.9	20.81189
964.274	21.90911
964.649	20.60502
965.023	21.11824
965.397	19.00449
965.771	20.38384
966.146	22.06616
966.52	21.24459
966.894	18.30258
967.268	22.54507
967.641	17.06829
968.015	19.50331
968.389	21.36213
968.763	18.48156
969.136	22.25172
969.51	19.4852
969.883	20.01599
970.257	20.72979
970.63	21.58599
971.003	20.79366
971.377	21.417
971.75	20.67843
972.123	21.27695
972.496	20.05077
972.869	21.58304
973.242	21.71375
973.615	17.32504
973.988	20.58109
974.36	19.7974
974.733	21.54415
975.106	21.84848
975.478	19.60969
975.851	20.09717
976.223	21.71299
976.596	20.69277
976.968	21.1437
977.34	20.70069
977.712	21.34286
978.085	19.18937
978.457	19.41678
978.829	19.7605
979.201	19.11732
979.573	18.68661
979.944	19.45708
980.316	19.95181
980.688	19.96977
981.059	20.80918
981.431	22.19228
981.803	19.46327
982.174	20.6353
982.545	20.16626
982.917	19.92993
983.288	19.86875
983.659	22.32011
984.03	20.54715
984.401	19.52393
984.772	19.60872
985.143	20.24045
985.514	19.44075
985.885	21.67671
986.256	20.69908
986.627	20.7224
986.997	18.26201
987.368	19.77175
987.738	18.92189
988.109	19.49868
988.479	20.16382
988.85	19.69535
989.22	20.29554
989.59	20.49177
989.96	19.0551
990.33	21.02403
990.7	18.4348
991.07	19.33044
991.44	18.40132
991.81	18.63878
992.18	19.25062
992.549	19.50979
992.919	17.52457
993.289	19.14495
993.658	19.46221
994.028	19.07832
994.397	19.85594
994.766	20.50898
995.136	18.04964
995.505	19.85397
995.874	19.11064
996.243	19.49653
996.612	20.00189
996.981	18.11031
997.35	19.54394
997.719	18.55985
998.088	18.42334
998.456	17.15097
998.825	20.59891
999.194	18.92585
999.562	22.17542
999.931	19.48007
1000.299	18.49925
1000.667	19.33153
1001.036	19.14104
1001.404	19.46187
1001.772	19.15271
1002.14	20.486
1002.508	20.09289
1002.876	17.77298
1003.244	18.48657
1003.612	18.25878
1003.98	23.25132
1004.347	20.63673
1004.715	19.28961
1005.083	19.72511
1005.45	19.11763
1005.818	19.28302
1006.185	20.74103
1006.552	20.5843
1006.92	18.3012
1007.287	19.20224
1007.654	14.51665
1008.021	19.01969
1008.388	18.43269
1008.755	16.44062
1009.122	17.30626
1009.489	21.68332
1009.856	21.70861
1010.222	21.06702
1010.589	19.64283
1010.956	17.55407
1011.322	19.58045
1011.689	18.71997
1012.055	23.85131
1012.421	17.45843
1012.788	18.56178
1013.154	21.70104
1013.52	19.54397
1013.886	16.24494
1014.252	14.60229
1014.618	22.36918
1014.984	18.19605
1015.35	18.22854
1015.716	22.87127
1016.081	23.86746
1016.447	21.17427
1016.813	18.56471
1017.178	19.53553
1017.544	24.80742
1017.909	19.90536
1018.274	23.9239
1018.64	23.57644
1019.005	22.58135
1019.37	21.76854
1019.735	24.93926
1020.1	17.98284
1020.465	21.55702
1020.83	18.97888
1021.195	23.72535
1021.56	19.5578
1021.924	26.46242
1022.289	28.45643
1022.654	23.6589
1023.018	14.5655
1023.383	18.54852
1023.747	20.63439
1024.111	17.52766
1024.476	22.08747
1024.84	24.5907
1025.204	25.16824
1025.568	16.46494
1025.932	20.75008
1026.296	28.06867
1026.66	31.11659
1027.024	26.17129
1027.387	29.41673
1027.751	20.3433
1028.115	26.4338
1028.478	24.8281
1028.842	20.86431
1029.205	21.92987
1029.569	17.25202
1029.932	19.12102
1030.295	22.13364
1030.659	24.49493
1031.022	18.53731
1031.385	27.66944
1031.748	23.89244
1032.111	20.28804
1032.474	26.69542
1032.836	20.28803
1033.199	24.36349
1033.562	22.0992
1033.924	29.26698
1034.287	7.39188
1034.65	35.34678
1035.012	28.02091
1035.374	36.11142
1035.737	34.31609
1036.099	23.32169
1036.461	26.75237
1036.823	17.25836
1037.185	40.23234
1037.547	19.27164
1037.909	47.85387
1038.271	33.8115
1038.633	33.77907
1038.995	1.46442
1039.356	18.42134
1039.718	29.69877
1040.08	32.31933
1040.441	24.90486
1040.803	24.99007
1041.164	29.46661
1041.525	23.27319
1041.886	31.98603
1042.248	20.26081
1042.609	26.15422
1042.97	29.47175
1043.331	35.56166
1043.692	15.70198
1044.053	18.46648
1044.413	29.24822
1044.774	17.48299
1045.135	39.34568
1045.495	44.08021
1045.856	32.49655
1046.216	17.60858
1046.577	27.06475
1046.937	38.06187
1047.298	29.99127
