Data from 1016water_Reflection__28__20-43-22-176.txt Node

Date: Thu Oct 16 20:43:22 AST 2025
User: lin
Spectrometer: SR600411
Trigger mode: 0
Integration Time (sec): 5.601500E-2
Scans to average: 5
Nonlinearity correction enabled: true
Boxcar width: 0
Storing dark spectrum: false
XAxis mode: Wavelengths
Number of Pixels in Spectrum: 2048
>>>>>Begin Spectral Data<<<<<
187.982	56.34321
188.456	57.86261
188.93	51.8385
189.403	62.5714
189.877	64.08086
190.351	67.23892
190.825	55.5014
191.298	62.78844
191.772	58.83607
192.246	66.37939
192.719	42.3316
193.193	52.51547
193.666	51.47773
194.139	61.99066
194.613	48.14831
195.086	67.39566
195.559	56.30419
196.033	61.9788
196.506	59.57087
196.979	56.14942
197.452	67.40675
197.925	58.49317
198.398	66.11255
198.871	57.84857
199.344	71.78237
199.816	64.71095
200.289	58.97948
200.762	68.58472
201.235	54.3266
201.707	78.04183
202.18	50.57288
202.652	54.48281
203.125	69.55943
203.597	66.8808
204.07	76.87252
204.542	47.744
205.014	46.65779
205.486	67.73388
205.959	63.12024
206.431	39.40373
206.903	64.85818
207.375	42.30141
207.847	54.21836
208.319	43.51325
208.791	42.1361
209.263	45.2585
209.734	67.90466
210.206	68.6231
210.678	76.79558
211.15	70.58334
211.621	57.03049
212.093	72.96719
212.564	74.06997
213.036	73.14394
213.507	59.99548
213.979	72.98735
214.45	49.99485
214.921	59.81609
215.392	81.07771
215.864	61.10602
216.335	81.33925
216.806	43.89644
217.277	103.29732
217.748	52.37472
218.219	86.90287
218.69	56.9463
219.161	66.66271
219.631	40.34544
220.102	52.40662
220.573	38.83728
221.043	69.78766
221.514	52.57253
221.985	59.59123
222.455	46.91666
222.926	46.66148
223.396	53.84103
223.866	75.40535
224.337	28.42725
224.807	69.08625
225.277	62.95922
225.747	73.52416
226.217	49.55952
226.687	55.9636
227.157	35.71046
227.627	32.09527
228.097	44.43872
228.567	75.7244
229.037	68.26477
229.507	43.39106
229.977	57.84539
230.446	65.13271
230.916	61.60189
231.386	40.44519
231.855	30.24713
232.325	29.16175
232.794	61.97782
233.263	75.37983
233.733	81.0985
234.202	49.99554
234.671	51.54158
235.14	85.89556
235.61	66.94398
236.079	42.22005
236.548	73.55986
237.017	55.07896
237.486	43.32749
237.955	75.94651
238.424	72.52388
238.892	82.4043
239.361	39.12609
239.83	49.17429
240.299	73.12911
240.767	45.34461
241.236	43.26417
241.704	70.79183
242.173	94.99925
242.641	68.60098
243.109	82.41497
243.578	80.59494
244.046	99.08237
244.514	37.07453
244.982	38.32771
245.451	78.87089
245.919	31.57569
246.387	83.33085
246.855	65.11241
247.323	74.7984
247.791	57.68853
248.258	72.27321
248.726	55.55203
249.194	66.06645
249.662	107.46375
250.129	46.48561
250.597	18.10004
251.064	37.25017
251.532	59.08458
251.999	52.62594
252.467	117.19005
252.934	45.27781
253.401	48.93152
253.869	38.26781
254.336	88.23354
254.803	46.93394
255.27	56.09355
255.737	50.58402
256.204	91.34452
256.671	50.53303
257.138	43.05205
257.605	135.85418
258.072	59.22455
258.539	66.98577
259.005	51.34768
259.472	86.04446
259.939	39.79126
260.405	94.11709
260.872	34.99639
261.338	56.18535
261.805	41.9295
262.271	73.76581
262.737	38.45666
263.203	43.29425
263.67	62.88211
264.136	77.00844
264.602	49.99614
265.068	80.22985
265.534	55.09723
266	60.19942
266.466	25.24882
266.932	56.97256
267.398	82.64119
267.864	43.74376
268.329	39.61761
268.795	58.81782
269.261	78.07971
269.726	77.77531
270.192	62.11505
270.657	37.0636
271.123	61.60189
271.588	65.21325
272.053	60.8663
272.519	103.93804
272.984	75.38222
273.449	125.00372
273.914	59.99524
274.379	49.49004
274.844	61.31577
275.309	37.35841
275.774	68.3125
276.239	65.54089
276.704	72.96863
277.169	60.71031
277.634	49.47973
278.098	78.7846
278.563	55.95797
279.028	76.46755
279.492	66.37418
279.957	82.95208
280.421	75.8042
280.886	59.40111
281.35	65.342
281.814	100
282.279	66.15096
282.743	82.60673
283.207	60.70899
283.671	54.91204
284.135	49.5938
284.599	72.81149
285.063	87.49775
285.527	60.75576
285.991	94.44351
286.455	79.9973
286.919	78.09168
287.382	37.60139
287.846	40.9952
288.31	45.67503
288.773	87.49844
289.237	79.72736
289.7	50.93814
290.164	47.11025
290.627	97.36803
291.09	61.38139
291.554	87.91017
292.017	80.80504
292.48	32.70561
292.943	49.5186
293.406	73.49077
293.869	78.15797
294.332	84.90297
294.795	67.89774
295.258	55.33476
295.721	34.94681
296.184	123.73225
296.646	55.12438
297.109	81.07883
297.572	65.47242
298.034	107.57682
298.497	59.65819
298.959	60.249
299.422	116.17901
299.884	66.3504
300.346	72.41035
300.809	53.72804
301.271	59.17898
301.733	58.82026
302.195	71.08096
302.657	82.28889
303.119	31.81534
303.581	45.05048
304.043	85.36382
304.505	57.72726
304.967	55.31454
305.429	67.15832
305.891	26.56002
306.352	66.66363
306.814	59.71879
307.275	103.39024
307.737	39.65242
308.198	85.49296
308.66	90.47476
309.121	66.19403
309.583	70.66358
310.044	24.63514
310.505	40.56097
310.966	71.60167
311.428	71.42517
311.889	48.61845
312.35	63.47298
312.811	43.40457
313.272	107.84399
313.733	71.04953
314.193	133.35293
314.654	56.98473
315.115	67.41185
315.576	58.02078
316.036	100
316.497	63.2875
316.957	57.26739
317.418	57.7756
317.878	37.60139
318.339	77.21243
318.799	48.17638
319.259	111.29187
319.72	67.1398
320.18	74.10288
320.64	133.33968
321.1	109.09264
321.56	68.68265
322.02	54.80258
322.48	87.17776
322.94	26.43343
323.4	59.56998
323.86	52.67303
324.319	74.99732
324.779	73.43502
325.239	53.14767
325.698	70.12667
326.158	86.41787
326.617	98.43731
327.077	55.92932
327.536	63.74633
327.996	141.38604
328.455	67.0551
328.914	80.22985
329.373	71.997
329.832	45.8286
330.292	114.49502
330.751	81.01025
331.21	44.4396
331.668	111.59597
332.127	67.94535
332.586	56.24766
333.045	45.35606
333.504	44.3544
333.962	86.53726
334.421	111.76648
334.88	52.456
335.338	73.82768
335.797	67.99676
336.255	51.34768
336.714	35.89388
337.172	72.26418
337.63	78.42966
338.088	74.64522
338.547	68.67116
339.005	54.21278
339.463	77.47364
339.921	44.44004
340.379	74.07099
340.837	78.25777
341.295	87.09539
341.753	48.62291
342.21	45.67503
342.668	62.19129
343.126	55.84039
343.584	69.3647
344.041	56.30566
344.499	107.34115
344.956	47.49604
345.414	45.15673
345.871	48.03417
346.328	70.88285
346.786	66.94398
347.243	64.94408
347.7	80.59494
348.157	68.5139
348.614	96.24943
349.071	72.33483
349.528	81.47825
349.985	87.9286
350.442	66.66191
350.899	77.1707
351.356	85.54013
351.812	76.57263
352.269	62.38025
352.726	86.41787
353.182	35.79878
353.639	90.08813
354.095	62.0649
354.552	49.99475
355.008	75.40535
355.465	61.3814
355.921	49.2001
356.377	63.10205
356.833	50.5704
357.289	54.77696
357.745	104.59853
358.201	47.51077
358.657	62.17932
359.113	67.00606
359.569	39.86591
360.025	59.73292
360.481	55.46776
360.937	71.65023
361.392	84.70152
361.848	75.7335
362.303	77.85812
362.759	77.83152
363.214	71.88449
363.67	55.70403
364.125	72.68209
364.581	54.71195
365.036	72.59965
365.491	54.43462
365.946	47.15413
366.401	60.38825
366.856	63.34807
367.311	57.68964
367.766	64.90728
368.221	50.81465
368.676	63.70129
369.131	60.06613
369.586	61.06491
370.041	54.17656
370.495	54.64427
370.95	58.95018
371.404	54.4723
371.859	55.27373
372.313	58.81183
372.768	53.81794
373.222	53.91316
373.676	54.64475
374.131	53.62332
374.585	53.21911
375.039	55.73979
375.493	56.16527
375.947	51.71456
376.401	56.46863
376.855	56.1107
377.309	54.99268
377.763	55.08838
378.217	56.66293
378.67	55.31899
379.124	56.08215
379.578	56.25877
380.031	57.48113
380.485	56.21873
380.938	54.77578
381.392	55.61696
381.845	55.02478
382.299	54.74801
382.752	54.60884
383.205	54.69239
383.658	53.38268
384.111	53.35132
384.564	55.33416
385.018	55.62815
385.471	55.77744
385.923	54.93401
386.376	54.77452
386.829	54.84092
387.282	56.99625
387.735	55.11423
388.187	55.70644
388.64	56.07315
389.093	55.70316
389.545	55.13609
389.998	56.80339
390.45	55.24599
390.902	54.58393
391.355	55.17937
391.807	56.13394
392.259	55.53605
392.711	55.99395
393.163	56.43828
393.615	55.77565
394.068	56.98558
394.519	56.16661
394.971	55.16725
395.423	55.82693
395.875	56.07541
396.327	55.63341
396.779	56.18879
397.23	55.78779
397.682	55.26117
398.133	55.42019
398.585	54.71428
399.036	54.66438
399.488	54.91647
399.939	55.39858
400.39	54.65168
400.842	55.05249
401.293	54.29267
401.744	53.97428
402.195	54.79082
402.646	54.04707
403.097	53.88595
403.548	53.97138
403.999	53.53848
404.45	54.23737
404.9	53.25761
405.351	53.70161
405.802	53.09133
406.253	53.37432
406.703	53.29787
407.154	52.99722
407.604	52.81531
408.055	52.32169
408.505	51.95052
408.955	52.08973
409.406	52.42737
409.856	52.12967
410.306	52.16406
410.756	51.88701
411.206	52.05283
411.656	51.13594
412.106	51.15356
412.556	50.72116
413.006	50.56944
413.456	50.3948
413.905	50.03225
414.355	50.29691
414.805	50.5289
415.254	49.79632
415.704	50.23679
416.153	49.19419
416.603	49.28621
417.052	49.62648
417.502	49.14761
417.951	49.5675
418.4	49.19856
418.849	48.86818
419.298	48.42655
419.748	48.60539
420.197	48.2966
420.646	47.50966
421.094	47.89874
421.543	47.53012
421.992	47.67492
422.441	46.90209
422.89	47.16836
423.338	46.99531
423.787	46.89769
424.236	47.20651
424.684	46.78836
425.133	46.25122
425.581	46.73135
426.029	46.53465
426.478	46.62559
426.926	46.89949
427.374	46.33074
427.822	46.04859
428.27	45.94316
428.718	45.45109
429.166	46.20932
429.614	46.1457
430.062	45.65254
430.51	46.12856
430.958	46.01533
431.406	45.0354
431.853	46.1285
432.301	45.76785
432.749	45.53646
433.196	44.80872
433.644	45.23029
434.091	45.00025
434.538	45.65434
434.986	44.64498
435.433	45.04168
435.88	44.52162
436.327	44.43971
436.775	44.59293
437.222	44.24369
437.669	44.6647
438.116	44.29157
438.563	44.31024
439.009	44.58465
439.456	44.91674
439.903	44.86416
440.35	44.31855
440.796	44.60921
441.243	44.77688
441.689	44.31573
442.136	44.94912
442.582	44.78074
443.029	44.83128
443.475	44.62657
443.921	44.43221
444.368	44.5364
444.814	44.1918
445.26	44.0001
445.706	44.63217
446.152	44.8091
446.598	44.49921
447.044	44.38193
447.49	44.6195
447.936	44.29473
448.381	44.4234
448.827	44.72752
449.273	44.84871
449.718	44.95486
450.164	44.80906
450.61	44.51525
451.055	44.43147
451.5	44.65053
451.946	44.54346
452.391	44.82237
452.836	44.92
453.282	44.91894
453.727	44.82865
454.172	45.21648
454.617	45.4708
455.062	45.20495
455.507	45.65549
455.952	45.46092
456.396	45.26929
456.841	45.40455
457.286	45.6767
457.731	45.63617
458.175	45.59095
458.62	46.05762
459.064	45.95931
459.509	46.24239
459.953	45.42214
460.398	46.13909
460.842	46.35952
461.286	46.25059
461.73	46.43632
462.174	46.16025
462.619	46.36568
463.063	47.05897
463.507	46.96391
463.951	47.00194
464.394	46.97115
464.838	47.30569
465.282	47.50209
465.726	47.89183
466.17	48.05011
466.613	47.67681
467.057	47.9114
467.5	48.30495
467.944	48.19689
468.387	48.83921
468.831	48.00963
469.274	48.64695
469.717	49.11224
470.16	49.73421
470.603	49.58824
471.047	49.93607
471.49	50.30711
471.933	50.35459
472.376	50.43458
472.818	50.48242
473.261	50.26436
473.704	50.49464
474.147	51.46596
474.59	51.32359
475.032	51.19773
475.475	51.66807
475.917	51.66746
476.36	51.75675
476.802	51.84857
477.245	52.41743
477.687	52.80494
478.129	52.64756
478.571	52.95272
479.013	53.42648
479.456	53.27502
479.898	53.63718
480.34	53.63119
480.782	53.62315
481.224	54.0598
481.665	53.49744
482.107	54.13566
482.549	54.11706
482.991	54.07579
483.432	53.90157
483.874	54.39109
484.315	54.43066
484.757	54.28108
485.198	54.79961
485.64	54.9607
486.081	54.97199
486.522	55.44694
486.963	55.37403
487.405	54.94284
487.846	55.47023
488.287	55.66345
488.728	56.14982
489.169	56.14681
489.61	55.83676
490.05	55.6956
490.491	56.15977
490.932	55.92355
491.373	56.03628
491.813	56.34896
492.254	55.82312
492.694	56.04303
493.135	56.24018
493.575	55.78883
494.016	55.77395
494.456	56.33323
494.896	56.46112
495.336	56.65684
495.777	56.81128
496.217	56.75441
496.657	56.4214
497.097	56.48362
497.537	56.25479
497.977	56.61557
498.416	56.56036
498.856	57.05166
499.296	57.48487
499.736	57.10959
500.175	57.4495
500.615	57.90386
501.054	57.67958
501.494	57.90768
501.933	57.6724
502.373	57.53557
502.812	58.45479
503.251	58.01224
503.69	58.17277
504.129	58.93417
504.569	58.67879
505.008	59.03861
505.447	58.69597
505.886	59.16902
506.324	59.04258
506.763	59.38576
507.202	59.34218
507.641	59.85454
508.079	60.27053
508.518	60.56539
508.957	60.69539
509.395	60.27046
509.834	60.93961
510.272	61.10444
510.71	61.02981
511.149	61.24265
511.587	61.91595
512.025	61.93127
512.463	61.86407
512.901	61.7289
513.339	61.78719
513.777	62.92969
514.215	62.3188
514.653	62.43633
515.091	62.97345
515.529	62.63924
515.966	62.87744
516.404	63.42905
516.842	63.31081
517.279	63.7674
517.717	63.81725
518.154	64.33964
518.592	63.91356
519.029	64.34597
519.466	65.0628
519.904	64.4916
520.341	64.96226
520.778	65.47798
521.215	65.57188
521.652	65.40994
522.089	65.68258
522.526	65.85236
522.963	65.93448
523.399	65.63327
523.836	67.07695
524.273	66.8721
524.71	67.57326
525.146	67.68434
525.583	67.44318
526.019	67.72823
526.456	67.60239
526.892	67.86745
527.328	67.77438
527.765	68.03292
528.201	68.65383
528.637	68.71219
529.073	69.36112
529.509	69.04284
529.945	69.26285
530.381	69.37135
530.817	69.6483
531.253	69.43698
531.689	69.88876
532.124	70.04028
532.56	70.23483
532.996	70.04919
533.431	70.29613
533.867	70.69787
534.302	70.50091
534.738	71.08182
535.173	71.0021
535.608	71.06339
536.044	71.56952
536.479	71.29672
536.914	71.30378
537.349	71.22386
537.784	71.53071
538.219	71.60783
538.654	71.84551
539.089	71.66553
539.524	71.30727
539.959	71.30952
540.393	71.62978
540.828	72.46582
541.263	72.88836
541.697	72.45861
542.132	72.22441
542.566	71.74332
543.001	71.95199
543.435	72.36535
543.869	72.19916
544.303	72.81611
544.738	72.68779
545.172	72.52156
545.606	72.39748
546.04	72.70606
546.474	71.971
546.908	72.45578
547.342	72.05589
547.775	72.14452
548.209	71.6428
548.643	72.32954
549.077	72.30872
549.51	72.20058
549.944	71.94548
550.377	71.31993
550.811	71.68682
551.244	71.22031
551.677	71.34781
552.111	71.42997
552.544	71.34483
552.977	70.42539
553.41	70.14073
553.843	69.76017
554.276	70.04798
554.709	69.12736
555.142	69.86486
555.575	68.70247
556.008	69.18669
556.44	68.94108
556.873	68.58243
557.306	68.52098
557.738	68.46977
558.171	68.11613
558.603	67.62359
559.036	67.90723
559.468	67.04776
559.9	67.28709
560.333	67.18256
560.765	67.16154
561.197	66.18329
561.629	66.54171
562.061	66.21933
562.493	66.14951
562.925	66.65231
563.357	65.54383
563.789	65.55811
564.22	65.66011
564.652	65.39264
565.084	65.12844
565.515	64.95964
565.947	64.3657
566.378	64.50342
566.81	64.22323
567.241	64.20931
567.672	64.28079
568.104	64.03912
568.535	63.52339
568.966	63.39454
569.397	62.67874
569.828	61.90632
570.259	62.27732
570.69	61.24683
571.121	61.20955
571.552	61.09301
571.983	61.09128
572.414	60.78861
572.844	60.35734
573.275	60.44568
573.705	60.28159
574.136	60.29749
574.566	60.0863
574.997	60.03267
575.427	59.7771
575.857	59.55916
576.288	59.10949
576.718	59.25916
577.148	58.89385
577.578	58.53031
578.008	58.65089
578.438	58.69804
578.868	58.38751
579.298	57.53359
579.728	57.62583
580.157	57.55368
580.587	56.63122
581.017	56.72372
581.446	56.38972
581.876	56.02869
582.305	55.8542
582.735	55.76095
583.164	55.81675
583.593	55.00277
584.023	55.24848
584.452	55.24063
584.881	55.13432
585.31	55.30428
585.739	54.99504
586.168	55.00906
586.597	54.4552
587.026	54.16943
587.455	53.95536
587.884	53.92642
588.312	53.5548
588.741	52.80324
589.17	53.21003
589.598	52.97079
590.027	52.2869
590.455	52.51867
590.884	52.36988
591.312	52.18697
591.74	51.90748
592.168	51.79617
592.597	52.10651
593.025	51.75108
593.453	51.58989
593.881	51.08131
594.309	50.9012
594.737	50.90456
595.165	50.61663
595.592	50.69004
596.02	50.34766
596.448	50.10971
596.875	49.95602
597.303	49.82707
597.73	49.61086
598.158	49.96219
598.585	49.51764
599.013	49.26069
599.44	49.22841
599.867	48.83443
600.294	49.14138
600.722	48.5933
601.149	48.44487
601.576	48.93256
602.003	48.5808
602.43	48.00747
602.856	48.12037
603.283	47.97836
603.71	48.13128
604.137	47.68007
604.563	48.12898
604.99	47.91314
605.416	47.75541
605.843	47.73741
606.269	47.4352
606.696	47.65613
607.122	47.52087
607.548	47.00161
607.975	47.21979
608.401	47.05495
608.827	46.73887
609.253	46.85634
609.679	46.83695
610.105	46.85674
610.531	46.69155
610.956	46.72881
611.382	47.16539
611.808	47.18144
612.234	46.1125
612.659	46.43564
613.085	46.26979
613.51	46.31505
613.936	46.20011
614.361	46.2326
614.786	46.32802
615.212	46.26401
615.637	46.07385
616.062	46.05276
616.487	46.05919
616.912	45.88886
617.337	46.04154
617.762	46.27329
618.187	46.20915
618.612	46.27214
619.037	46.05109
619.461	46.01652
619.886	46.15251
620.311	46.38103
620.735	46.31225
621.16	46.346
621.584	46.64464
622.008	46.49611
622.433	46.35077
622.857	45.73817
623.281	45.60559
623.705	45.80949
624.13	45.86789
624.554	45.60071
624.978	45.74848
625.402	45.4984
625.826	45.45898
626.249	45.50586
626.673	45.22512
627.097	45.77249
627.521	45.26385
627.944	45.57888
628.368	45.28006
628.791	45.90625
629.215	45.82548
629.638	45.91351
630.061	45.84495
630.485	46.04057
630.908	45.81333
631.331	46.1695
631.754	46.18729
632.177	46.54051
632.6	46.22727
633.023	46.64107
633.446	46.98002
633.869	46.89445
634.292	46.90037
634.715	47.79585
635.137	47.69506
635.56	47.75867
635.982	47.74218
636.405	47.48804
636.827	48.09177
637.25	47.65483
637.672	47.33541
638.094	47.62194
638.517	47.90492
638.939	47.89931
639.361	48.43409
639.783	48.54014
640.205	48.62452
640.627	48.66763
641.049	48.42694
641.471	48.72584
641.893	49.14428
642.314	49.08849
642.736	48.92141
643.158	49.1231
643.579	49.49588
644.001	49.42506
644.422	49.65846
644.844	49.97502
645.265	49.65959
645.686	49.76652
646.107	50.16496
646.529	49.70285
646.95	50.4278
647.371	49.98869
647.792	50.55153
648.213	50.82855
648.634	50.79011
649.055	51.06986
649.475	51.13236
649.896	51.27384
650.317	51.47389
650.737	51.68645
651.158	51.77239
651.578	51.95591
651.999	52.02987
652.419	51.9427
652.84	52.50195
653.26	52.30679
653.68	52.86975
654.1	52.77687
654.521	52.19721
654.941	53.18967
655.361	53.61851
655.781	53.50194
656.2	53.54507
656.62	54.0955
657.04	54.16089
657.46	53.60704
657.879	53.73317
658.299	54.59975
658.719	53.67063
659.138	54.25605
659.558	54.60674
659.977	54.97563
660.396	55.1231
660.816	55.05071
661.235	55.0043
661.654	55.08572
662.073	55.06236
662.492	55.18705
662.911	54.93269
663.33	55.72538
663.749	55.60471
664.168	56.31396
664.587	56.42078
665.006	56.77195
665.424	56.01067
665.843	56.72844
666.261	56.69401
666.68	56.65694
667.098	56.67895
667.517	57.06628
667.935	57.15014
668.353	57.16246
668.772	56.42691
669.19	57.12248
669.608	56.99439
670.026	57.39017
670.444	57.44477
670.862	57.32657
671.28	57.41452
671.698	57.48325
672.115	57.32845
672.533	56.24926
672.951	57.10147
673.368	57.02621
673.786	57.34648
674.203	57.22037
674.621	57.54164
675.038	57.24511
675.456	57.55559
675.873	56.73739
676.29	57.37096
676.707	57.1848
677.124	57.42419
677.541	57.35871
677.958	57.37615
678.375	57.54565
678.792	56.838
679.209	57.07814
679.626	56.43083
680.043	56.66841
680.459	56.66224
680.876	56.54797
681.292	56.22678
681.709	55.64583
682.125	55.6655
682.542	55.46624
682.958	55.40998
683.374	55.87006
683.79	55.30876
684.207	55.3676
684.623	54.72731
685.039	55.38861
685.455	55.0397
685.871	54.92691
686.286	55.08555
686.702	54.35196
687.118	54.63756
687.534	53.96741
687.949	54.47412
688.365	54.37443
688.781	54.15814
689.196	53.15756
689.611	54.00035
690.027	53.48024
690.442	52.94158
690.857	52.79279
691.273	52.64926
691.688	52.97687
692.103	52.22249
692.518	52.47998
692.933	52.43761
693.348	52.13305
693.763	52.05808
694.177	51.36336
694.592	51.3908
695.007	50.97143
695.421	51.2954
695.836	50.61318
696.25	50.97326
696.665	50.18579
697.079	50.29467
697.494	49.86919
697.908	49.80301
698.322	49.72202
698.736	49.508
699.151	49.11582
699.565	48.61356
699.979	48.37071
700.393	48.58023
700.806	48.57535
701.22	48.29999
701.634	48.58704
702.048	47.26842
702.461	47.05602
702.875	46.74146
703.289	46.26673
703.702	46.46177
704.116	46.18935
704.529	45.45266
704.942	45.66498
705.356	45.34106
705.769	45.18059
706.182	45.03867
706.595	44.89529
707.008	44.61236
707.421	44.33989
707.834	44.1091
708.247	44.00624
708.66	43.80403
709.072	43.53899
709.485	43.24041
709.898	43.06272
710.31	42.84655
710.723	42.82097
711.135	42.1857
711.548	42.5653
711.96	41.76679
712.373	41.48824
712.785	41.14392
713.197	41.03868
713.609	40.47415
714.021	40.18145
714.433	39.48232
714.845	39.59854
715.257	39.29374
715.669	38.98662
716.081	38.86142
716.493	38.70009
716.904	38.27571
717.316	38.51003
717.727	37.93523
718.139	38.10073
718.55	37.70939
718.962	37.81448
719.373	37.8382
719.784	36.79449
720.196	36.28744
720.607	36.20803
721.018	35.90687
721.429	35.66055
721.84	35.70774
722.251	35.36324
722.662	35.49973
723.073	35.52929
723.483	34.74264
723.894	34.52076
724.305	34.57042
724.715	33.96212
725.126	34.18218
725.536	33.95565
725.947	33.62123
726.357	33.27864
726.768	33.51079
727.178	32.96568
727.588	32.50401
727.998	32.51071
728.408	32.052
728.818	31.8009
729.228	31.85368
729.638	31.82456
730.048	31.44687
730.458	31.4532
730.868	31.15779
731.277	31.1816
731.687	30.59306
732.097	30.92343
732.506	30.47129
732.916	30.30516
733.325	30.3369
733.734	30.39471
734.144	29.87824
734.553	29.86839
734.962	29.38864
735.371	29.72458
735.78	28.87726
736.189	29.10692
736.598	28.90762
737.007	28.95134
737.416	28.27301
737.825	28.66318
738.233	28.39511
738.642	28.44261
739.051	27.79804
739.459	28.07556
739.868	27.50452
740.276	27.44887
740.684	26.69863
741.093	26.93598
741.501	27.15802
741.909	26.43333
742.317	26.80875
742.725	26.26477
743.133	26.61474
743.541	25.95068
743.949	26.38544
744.357	25.90288
744.765	26.23856
745.173	25.94517
745.58	26.10435
745.988	25.75969
746.396	25.8527
746.803	25.61338
747.211	25.70325
747.618	25.45564
748.025	25.3008
748.433	25.43373
748.84	24.85844
749.247	25.51271
749.654	25.06454
750.061	25.43989
750.468	24.56168
750.875	24.85321
751.282	24.31617
751.689	24.5865
752.096	24.47948
752.502	24.29685
752.909	24.39171
753.316	23.95152
753.722	24.1743
754.129	23.92575
754.535	24.28063
754.941	23.82116
755.348	24.05889
755.754	23.38333
756.16	24.33518
756.566	23.35281
756.972	23.37745
757.378	23.52611
757.784	23.55546
758.19	23.37289
758.596	23.09622
759.002	23.62185
759.408	22.85558
759.813	23.59193
760.219	23.16986
760.624	23.32014
761.03	23.00135
761.435	22.95769
761.841	22.70366
762.246	22.55282
762.651	22.78697
763.057	22.58372
763.462	23.3165
763.867	23.12641
764.272	23.66433
764.677	23.38195
765.082	23.08107
765.487	23.38502
765.892	22.68065
766.296	23.03127
766.701	22.52937
767.106	22.87893
767.51	22.28372
767.915	22.60337
768.319	22.50456
768.724	22.30016
769.128	22.08119
769.532	22.14102
769.936	22.18661
770.341	21.77092
770.745	22.61448
771.149	22.46267
771.553	22.44297
771.957	22.26103
772.361	21.96327
772.764	21.89896
773.168	21.73316
773.572	22.26562
773.976	22.23191
774.379	22.18991
774.783	21.98812
775.186	21.28817
775.59	22.07524
775.993	21.58285
776.396	21.89858
776.8	21.27949
777.203	21.87646
777.606	21.77841
778.009	21.70492
778.412	22.1817
778.815	21.50722
779.218	21.77834
779.621	21.75979
780.023	22.16084
780.426	21.71698
780.829	21.64525
781.231	22.05964
781.634	21.48966
782.036	22.00293
782.439	21.57775
782.841	21.66873
783.244	22.12705
783.646	21.08826
784.048	22.1851
784.45	21.22517
784.852	21.95752
785.254	22.10007
785.656	21.64159
786.058	21.94122
786.46	21.57558
786.862	21.50361
787.264	21.55922
787.665	21.50103
788.067	21.61073
788.468	21.31141
788.87	21.68336
789.271	21.56825
789.673	21.76659
790.074	21.87454
790.475	21.63461
790.877	22.15432
791.278	21.60962
791.679	21.85963
792.08	21.92072
792.481	21.55241
792.882	21.96914
793.283	21.81761
793.683	21.50543
794.084	21.78929
794.485	21.38585
794.886	21.60443
795.286	21.5813
795.687	21.69725
796.087	21.62294
796.487	21.69983
796.888	21.6614
797.288	20.90201
797.688	21.71585
798.088	21.55173
798.489	21.5046
798.889	21.70692
799.289	21.27364
799.689	21.88248
800.088	21.26602
800.488	21.96951
800.888	21.95133
801.288	21.81053
801.687	22.54731
802.087	21.55268
802.486	21.80164
802.886	21.73797
803.285	20.98427
803.685	21.99665
804.084	21.46767
804.483	21.52766
804.882	22.28058
805.281	21.47829
805.68	21.66167
806.079	21.38287
806.478	21.73048
806.877	21.46369
807.276	21.64565
807.675	21.99614
808.074	21.60545
808.472	21.46298
808.871	21.79751
809.269	21.73445
809.668	22.02901
810.066	22.08758
810.465	21.80858
810.863	22.23126
811.261	21.36645
811.659	21.92564
812.057	21.93343
812.455	21.63875
812.853	22.18115
813.251	21.93464
813.649	21.90641
814.047	21.74235
814.445	21.32562
814.843	22.00925
815.24	21.54002
815.638	21.3159
816.035	21.65952
816.433	21.28775
816.83	21.55797
817.228	21.92272
817.625	21.38558
818.022	21.74597
818.419	21.17969
818.816	21.8576
819.213	21.91198
819.61	21.50989
820.007	22.08052
820.404	22.12967
820.801	21.67033
821.198	22.45994
821.595	22.14962
821.991	21.87761
822.388	22.7583
822.784	22.73456
823.181	23.01145
823.577	23.4741
823.974	23.24096
824.37	23.25872
824.766	23.24006
825.162	22.66132
825.558	22.91608
825.954	22.43004
826.35	22.38293
826.746	22.85453
827.142	22.63135
827.538	23.06646
827.934	22.88106
828.33	22.56906
828.725	23.04875
829.121	22.61104
829.516	22.21995
829.912	22.68665
830.307	22.40488
830.703	22.31115
831.098	21.93988
831.493	22.2835
831.888	22.22518
832.283	21.98153
832.678	21.7601
833.073	22.14462
833.468	22.11104
833.863	22.2167
834.258	22.58826
834.653	22.43205
835.048	22.75321
835.442	23.28615
835.837	22.39281
836.231	22.65402
836.626	23.2875
837.02	22.64282
837.415	23.07021
837.809	22.90079
838.203	22.57008
838.597	22.7469
838.991	22.02964
839.385	22.48195
839.779	22.62158
840.173	22.22659
840.567	22.87861
840.961	23.17232
841.355	22.84877
841.748	22.81036
842.142	22.92298
842.536	23.16325
842.929	23.10515
843.323	23.09068
843.716	23.33636
844.109	23.85645
844.503	23.26426
844.896	23.86068
845.289	24.00519
845.682	23.1996
846.075	23.31883
846.468	23.09316
846.861	23.80933
847.254	23.90094
847.647	23.03804
848.04	23.4393
848.432	24.19402
848.825	24.52701
849.217	23.44146
849.61	23.95394
850.002	23.87579
850.395	23.95061
850.787	23.96421
851.179	24.10657
851.572	23.78831
851.964	23.60491
852.356	23.49291
852.748	24.17963
853.14	23.1043
853.532	24.09283
853.924	23.50428
854.315	23.92804
854.707	23.14417
855.099	24.23188
855.491	23.85744
855.882	24.33061
856.274	23.98398
856.665	23.97016
857.056	23.96963
857.448	24.21933
857.839	24.35007
858.23	22.96245
858.621	23.89449
859.012	23.67406
859.403	23.83291
859.794	23.47844
860.185	24.41299
860.576	23.20649
860.967	24.41537
861.358	23.75656
861.748	23.76961
862.139	23.35291
862.529	23.62706
862.92	24.06583
863.31	24.00716
863.701	24.09613
864.091	23.98608
864.481	23.44866
864.872	23.96205
865.262	23.76318
865.652	23.53942
866.042	24.03159
866.432	23.4579
866.822	24.26464
867.211	24.61604
867.601	23.05384
867.991	23.86323
868.381	23.54409
868.77	22.92008
869.16	23.6278
869.549	24.10088
869.939	22.94902
870.328	23.578
870.717	23.1327
871.106	22.89508
871.496	23.44823
871.885	23.99838
872.274	23.359
872.663	23.49365
873.052	24.15415
873.441	23.17306
873.829	22.91087
874.218	23.33157
874.607	23.20596
874.996	22.69863
875.384	23.66071
875.773	22.59253
876.161	22.18938
876.549	22.82571
876.938	22.48308
877.326	22.09974
877.714	23.07627
878.102	22.48957
878.491	22.36707
878.879	23.03433
879.267	22.6727
879.655	22.30201
880.042	23.22814
880.43	23.35819
880.818	23.03062
881.206	23.45662
881.593	23.62166
881.981	23.24527
882.368	23.50448
882.756	23.8394
883.143	23.54008
883.53	23.02191
883.918	23.18757
884.305	22.87012
884.692	23.22315
885.079	23.57786
885.466	22.9324
885.853	23.21386
886.24	23.13162
886.627	22.99232
887.014	22.74385
887.4	23.47548
887.787	22.76318
888.174	23.03334
888.56	23.65946
888.947	23.71239
889.333	23.01503
889.719	23.50347
890.106	23.25411
890.492	22.76266
890.878	23.5858
891.264	23.01401
891.65	22.61699
892.036	22.56473
892.422	22.78768
892.808	22.78987
893.194	22.35397
893.58	23.17408
893.965	22.81226
894.351	22.57496
894.736	23.20448
895.122	23.0113
895.507	22.68862
895.893	23.0411
896.278	23.2173
896.663	23.27116
897.049	22.8183
897.434	23.83476
897.819	23.04565
898.204	23.40059
898.589	23.02777
898.974	23.03444
899.359	23.03024
899.743	22.5744
900.128	23.16022
900.513	22.87238
900.897	23.09741
901.282	22.9315
901.667	22.82112
902.051	22.9748
902.435	22.97224
902.82	22.60856
903.204	22.23652
903.588	22.35966
903.972	22.23004
904.356	22.41772
904.74	22.605
905.124	23.20238
905.508	22.83705
905.892	22.96043
906.276	22.99916
906.659	22.4446
907.043	22.66247
907.427	22.84159
907.81	23.0858
908.194	22.87583
908.577	23.261
908.96	22.79979
909.344	22.77254
909.727	22.03384
910.11	23.35364
910.493	22.80392
910.876	23.25143
911.259	22.25006
911.642	23.16382
912.025	22.21259
912.408	22.37644
912.79	21.97244
913.173	22.04617
913.556	22.06935
913.938	22.90001
914.321	22.46071
914.703	22.02366
915.086	21.74118
915.468	22.61114
915.85	22.25311
916.232	21.85946
916.614	22.2054
916.996	22.72026
917.378	22.24446
917.76	22.19507
918.142	22.76686
918.524	22.1495
918.906	22.16472
919.288	22.07304
919.669	23.03156
920.051	21.75554
920.432	22.06635
920.814	21.55461
921.195	22.64329
921.577	22.12122
921.958	23.69449
922.339	23.00945
922.72	22.46956
923.101	21.61073
923.482	22.58975
923.863	22.09791
924.244	21.95122
924.625	22.50516
925.006	21.74617
925.387	21.91629
925.767	22.91544
926.148	21.56209
926.528	22.77777
926.909	21.83421
927.289	22.65882
927.67	23.20884
928.05	21.32609
928.43	23.22114
928.81	23.11649
929.191	22.63507
929.571	22.52984
929.951	22.39977
930.331	21.91128
930.71	21.51186
931.09	20.94957
931.47	22.14568
931.85	21.49899
932.229	21.867
932.609	21.12609
932.988	22.55597
933.368	21.44328
933.747	21.79851
934.127	22.49156
934.506	22.12715
934.885	20.06805
935.264	21.76629
935.643	22.56156
936.022	21.63627
936.401	21.78041
936.78	22.30024
937.159	21.58598
937.538	21.01158
937.916	21.41334
938.295	21.2463
938.674	22.11084
939.052	21.88389
939.431	21.03245
939.809	22.85488
940.187	21.20535
940.566	21.30925
940.944	21.20205
941.322	21.90908
941.7	21.64049
942.078	22.69979
942.456	21.83851
942.834	21.7778
943.212	21.52616
943.59	23.00389
943.968	21.33672
944.345	19.93324
944.723	20.74252
945.1	20.15896
945.478	21.41917
945.855	20.33291
946.233	21.98619
946.61	22.84903
946.987	22.69168
947.365	22.15039
947.742	21.18164
948.119	21.72314
948.496	21.7734
948.873	20.74386
949.25	21.67592
949.626	21.04639
950.003	20.7964
950.38	20.51814
950.756	21.71223
951.133	21.82218
951.51	21.63706
951.886	20.93353
952.262	22.93301
952.639	20.82635
953.015	22.00946
953.391	21.33772
953.767	21.48289
954.143	21.05456
954.519	20.03443
954.895	20.80149
955.271	21.48293
955.647	22.72461
956.023	21.83574
956.399	21.37475
956.774	22.85677
957.15	20.0614
957.525	21.10683
957.901	22.45718
958.276	20.48835
958.652	20.4166
959.027	21.47865
959.402	20.53831
959.777	19.60991
960.152	21.91588
960.527	20.98487
960.902	23.43671
961.277	23.06139
961.652	22.82184
962.027	20.85936
962.402	21.551
962.776	22.91112
963.151	21.04715
963.525	19.5395
963.9	21.09063
964.274	22.25348
964.649	19.86948
965.023	19.9257
965.397	20.75791
965.771	22.81312
966.146	22.97513
966.52	19.13314
966.894	21.93903
967.268	20.51454
967.641	18.81741
968.015	21.03405
968.389	21.69382
968.763	20.13401
969.136	21.16268
969.51	22.50429
969.883	19.51023
970.257	20.62559
970.63	21.9202
971.003	20.1834
971.377	20.21971
971.75	19.7869
972.123	22.9047
972.496	21.04744
972.869	22.82419
973.242	22.00441
973.615	19.85957
973.988	23.10361
974.36	19.90931
974.733	21.26214
975.106	20.64483
975.478	19.57201
975.851	19.95779
976.223	21.1381
976.596	19.90939
976.968	20.32065
977.34	20.45774
977.712	20.66809
978.085	19.09385
978.457	19.59102
978.829	20.03363
979.201	18.54022
979.573	19.65077
979.944	19.7973
980.316	20.56052
980.688	19.86952
981.059	21.10344
981.431	21.44523
981.803	19.86464
982.174	21.52402
982.545	20.37758
982.917	20.95201
983.288	20.03862
983.659	20.75325
984.03	21.01902
984.401	20.30821
984.772	17.74039
985.143	21.04431
985.514	19.384
985.885	20.31474
986.256	20.55921
986.627	20.69506
986.997	21.48195
987.368	19.7979
987.738	19.92318
988.109	19.22134
988.479	17.87186
988.85	18.00778
989.22	18.63599
989.59	19.5328
989.96	20.34595
990.33	18.94978
990.7	17.9986
991.07	19.83308
991.44	18.29135
991.81	17.16399
992.18	17.60634
992.549	19.18825
992.919	17.74745
993.289	18.17855
993.658	18.89017
994.028	17.90183
994.397	19.25313
994.766	19.64949
995.136	19.27271
995.505	19.87802
995.874	20.41262
996.243	19.02107
996.612	21.80435
996.981	17.72252
997.35	19.33978
997.719	19.93077
998.088	20.16176
998.456	20.24274
998.825	22.26953
999.194	17.56686
999.562	21.53472
999.931	21.18784
1000.299	18.49925
1000.667	20.22675
1001.036	19.29469
1001.404	18.31627
1001.772	21.42682
1002.14	20.59864
1002.508	19.07342
1002.876	19.37417
1003.244	22.08053
1003.612	20.29569
1003.98	22.54082
1004.347	20.57435
1004.715	19.67952
1005.083	17.77179
1005.45	18.61258
1005.818	20.76232
1006.185	22.14246
1006.552	20.51587
1006.92	19.94105
1007.287	19.41571
1007.654	18.38096
1008.021	19.01969
1008.388	24.21334
1008.755	18.72532
1009.122	17.63052
1009.489	24.30555
1009.856	22.96434
1010.222	20.20527
1010.589	19.38507
1010.956	16.30896
1011.322	19.3139
1011.689	21.73898
1012.055	19.34349
1012.421	16.54652
1012.788	20.05608
1013.154	22.88803
1013.52	18.00437
1013.886	17.79277
1014.252	17.11317
1014.618	21.31882
1014.984	19.2295
1015.35	18.66691
1015.716	19.2394
1016.081	23.24374
1016.447	22.1034
1016.813	20.27035
1017.178	23.77531
1017.544	24.07127
1017.909	24.8839
1018.274	25.63355
1018.64	21.20612
1019.005	18.15684
1019.37	27.75164
1019.735	18.96251
1020.1	26.13657
1020.465	22.36065
1020.83	20.97724
1021.195	24.80417
1021.56	24.52406
1021.924	22.59597
1022.289	29.3949
1022.654	23.48864
1023.018	21.93579
1023.383	18.06029
1023.747	14.29828
1024.111	15.94989
1024.476	23.98614
1024.84	24.98112
1025.204	26.29549
1025.568	17.40062
1025.932	23.97415
1026.296	26.75843
1026.66	24.53264
1027.024	28.7495
1027.387	32.54713
1027.751	23.13616
1028.115	14.18239
1028.478	27.29104
1028.842	22.62167
1029.205	28.34506
1029.569	25.09558
1029.932	23.67458
1030.295	26.51759
1030.659	31.35525
1031.022	22.83654
1031.385	29.46151
1031.748	31.01613
1032.111	15.52854
1032.474	24.41328
1032.836	19.03549
1033.199	21.87699
1033.562	24.55515
1033.924	25.95312
1034.287	19.22041
1034.65	23.1763
1035.012	26.86519
1035.374	26.28735
1035.737	38.67492
1036.099	26.351
1036.461	24.48051
1036.823	18.33712
1037.185	37.44636
1037.547	26.78553
1037.909	32.77366
1038.271	21.31451
1038.633	27.13272
1038.995	21.60259
1039.356	15.35084
1039.718	26.43868
1040.08	34.95046
1040.441	26.58788
1040.803	20.14073
1041.164	27.60136
1041.525	21.36534
1041.886	30.75555
1042.248	24.31355
1042.609	33.32107
1042.97	29.07342
1043.331	26.07732
1043.692	9.57407
1044.053	19.67093
1044.413	22.213
1044.774	24.32502
1045.135	32.11778
1045.495	35.8991
1045.856	31.78998
1046.216	22.15308
1046.577	9.94154
1046.937	28.92599
1047.298	20.46942
