Data from 1017water_Reflection__24__21-02-51-303.txt Node

Date: Fri Oct 17 21:02:51 AST 2025
User: lin
Spectrometer: SR600411
Trigger mode: 0
Integration Time (sec): 5.846600E-2
Scans to average: 5
Nonlinearity correction enabled: true
Boxcar width: 0
Storing dark spectrum: false
XAxis mode: Wavelengths
Number of Pixels in Spectrum: 2048
>>>>>Begin Spectral Data<<<<<
187.982	39.85083
188.456	61.32278
188.93	44.03631
189.403	54.81339
189.877	42.70624
190.351	43.77315
190.825	41.16426
191.298	28.90555
191.772	45.95556
192.246	49.27197
192.719	36.0482
193.193	46.71362
193.666	43.32168
194.139	37.7574
194.613	46.79982
195.086	52.49363
195.559	52.55418
196.033	61.69105
196.506	41.56284
196.979	55.31971
197.452	54.58923
197.925	61.04907
198.398	57.80924
198.871	72.35642
199.344	45.67261
199.816	54.58291
200.289	53.12631
200.762	44.5475
201.235	46.29948
201.707	48.10275
202.18	27.06476
202.652	35.45733
203.125	35.17788
203.597	35.60008
204.07	39.65634
204.542	36.40462
205.014	43.4682
205.486	24.41233
205.959	49.10407
206.431	17.60551
206.903	68.14613
207.375	16.17283
207.847	33.81751
208.319	38.1131
208.791	22.01465
209.263	35.87191
209.734	30.21003
210.206	57.26741
210.678	43.23606
211.15	17.45673
211.621	27.39152
212.093	28.09435
212.564	51.13857
213.036	23.00489
213.507	52.01972
213.979	27.26928
214.45	28.7612
214.921	11.99791
215.392	25.40527
215.864	5.12708
216.335	36.66253
216.806	46.07342
217.277	22.93197
217.748	49.33458
218.219	18.09216
218.69	27.80394
219.161	18.17988
219.631	14.42054
220.102	27.90184
220.573	14.84055
221.043	8.9731
221.514	29.83358
221.985	37.36916
222.455	57.68729
222.926	25.45041
223.396	45.30623
223.866	4.20977
224.337	44.34221
224.807	30.58467
225.277	26.75782
225.747	34.18282
226.217	34.83175
226.687	9.781
227.157	18.85185
227.627	11.53689
228.097	25.76071
228.567	42.47241
229.037	33.58201
229.507	37.21994
229.977	-9.88815
230.446	35.61313
230.916	10.63653
231.386	26.31215
231.855	45.70742
232.325	31.92765
232.794	40.67234
233.263	37.11511
233.733	62.85229
234.202	29.19148
234.671	45.21175
235.14	23.39926
235.61	45.82744
236.079	34.03838
236.548	20.90549
237.017	29.72514
237.486	14.03237
237.955	-5.1536
238.424	5.61704
238.892	49.50947
239.361	36.29012
239.83	34.1427
240.299	9.99804
240.767	-38.08868
241.236	65.42847
241.704	21.42531
242.173	46.15001
242.641	9.80214
243.109	61.93405
243.578	49.21243
244.046	24.613
244.514	26.54431
244.982	24.99629
245.451	47.30724
245.919	18.94448
246.387	46.26206
246.855	39.44883
247.323	34.44042
247.791	-6.89528
248.258	12.11912
248.726	13.48109
249.194	36.04259
249.662	57.82732
250.129	-27.92008
250.597	25.22108
251.064	36.68426
251.532	-20.20825
251.999	2.27234
252.467	53.60348
252.934	47.28046
253.401	2.04043
253.869	14.13904
254.336	2.32519
254.803	77.04492
255.27	7.36714
255.737	45.36507
256.204	36.61646
256.671	43.55945
257.138	59.99478
257.605	44.73127
258.072	36.53131
258.539	6.32819
259.005	57.93043
259.472	37.24782
259.939	38.26782
260.405	-4.39478
260.872	61.42529
261.338	46.95085
261.805	55.29658
262.271	32.16166
262.737	5.37541
263.203	46.0489
263.67	27.51863
264.136	-1.45945
264.602	49.40756
265.068	30.22897
265.534	22.02989
266	21.42484
266.466	32.89142
266.932	66.38806
267.398	25.87913
267.864	15.92621
268.329	52.6653
268.795	-9.7207
269.261	66.98579
269.726	40.58924
270.192	29.20984
270.657	71.99701
271.123	24.52442
271.588	1.92288
272.053	65.17912
272.519	19.6949
272.984	35.10215
273.449	16.32388
273.914	1.23437
274.379	2.77739
274.844	9.99804
275.309	50.97535
275.774	48.75435
276.239	26.59212
276.704	27.77492
277.169	-13.25055
277.634	43.87277
278.098	0
278.563	42.46222
279.028	28.9827
279.492	30.0928
279.957	34.28259
280.421	57.75302
280.886	8.6007
281.35	61.90084
281.814	27.09862
282.279	-1.35115
282.743	34.9955
283.207	24.99644
283.671	17.07087
284.135	17.64413
284.599	31.42559
285.063	35.70984
285.527	33.0653
285.991	26.86307
286.455	79.11791
286.919	86.07408
287.382	40.37966
287.846	46.0813
288.31	35.10215
288.773	22.13294
289.237	53.38402
289.7	11.27556
290.164	-6.7557
290.627	24.72776
291.09	81.60661
291.554	-29.50359
292.017	65.04392
292.48	47.88382
292.943	63.15527
293.406	28.03311
293.869	27.26927
294.332	1.28186
294.795	18.5538
295.258	44.04353
295.721	-3.99918
296.184	-12.72571
296.646	28.56578
297.109	27.90355
297.572	51.68099
298.034	51.55617
298.497	36.16592
298.959	55.31455
299.422	47.9416
299.884	42.96934
300.346	45.11793
300.809	11.21285
301.271	31.76106
301.733	2.56352
302.195	28.25903
302.657	6.99871
303.119	45.77905
303.581	17.71924
304.043	27.18043
304.505	79.30752
304.967	-15.71177
305.429	61.21989
305.891	-5.55451
306.352	46.50739
306.814	56.33457
307.275	36.55487
307.737	37.36915
308.198	16.30186
308.66	20.25064
309.121	43.15329
309.583	11.84053
310.044	21.53411
310.505	50.54495
310.966	25.8041
311.428	82.14042
311.889	38.59114
312.35	33.66915
312.811	28.08633
313.272	-13.53875
313.733	29.99585
314.193	69.60467
314.654	19.70374
315.115	-5.74608
315.576	25.80293
316.036	16.94587
316.497	0
316.957	46.89709
317.418	35.63898
317.878	19.99747
318.339	28.56917
318.799	6.54076
319.259	18.29026
319.72	31.45688
320.18	0
320.64	64.9955
321.1	-1.709
321.56	0.88476
322.02	32.97461
322.48	72.14876
322.94	25.71032
323.4	40.42105
323.86	35.20806
324.319	-55.55094
324.779	22.88867
325.239	41.81289
325.698	33.32898
326.158	59.33631
326.617	13.25113
327.077	23.58113
327.536	37.0333
327.996	16.32388
328.455	11.76331
328.914	33.33004
329.373	23.6344
329.832	41.83201
330.292	31.64219
330.751	37.73093
331.21	3.38945
331.668	45.44861
332.127	30.57343
332.586	47.96141
333.045	19.46552
333.504	9.25836
333.962	46.42306
334.421	45.45077
334.88	-2.8165
335.338	27.58392
335.797	-6.52111
336.255	3.7969
336.714	48.38097
337.172	19.99715
337.63	9.41033
338.088	30.27068
338.547	-3.77276
339.005	34.73258
339.463	29.75843
339.921	-21.8153
340.379	55.05182
340.837	19.99763
341.295	39.32164
341.753	27.07959
342.21	78.2025
342.668	28.43597
343.126	53.91656
343.584	33.32912
344.041	4.12295
344.499	-2.15013
344.956	17.23892
345.414	11.68674
345.871	24.78201
346.328	69.44143
346.786	49.1322
347.243	24.99703
347.7	36.24635
348.157	4.76115
348.614	27.0227
349.071	62.49815
349.528	40.90488
349.985	21.00997
350.442	1.19028
350.899	77.26967
351.356	65.55153
351.812	34.44043
352.269	20.72904
352.726	22.11185
353.182	42.64377
353.639	24.02635
354.095	29.20984
354.552	34.64894
355.008	8.95414
355.465	2.5418
355.921	40.25608
356.377	12.64178
356.833	-5.65912
357.289	90.67599
357.745	15.88502
358.201	49.49996
358.657	14.28232
359.113	31.57408
359.569	24.81246
360.025	32.16895
360.481	30.80672
360.937	34.58408
361.392	36.62001
361.848	33.32412
362.303	32.20834
362.759	38.60638
363.214	28.81983
363.67	49.51784
364.125	32.13321
364.581	37.16231
365.036	35.28033
365.491	55.25932
365.946	49.54819
366.401	48.3796
366.856	42.76665
367.311	50.26335
367.766	49.72678
368.221	55.31135
368.676	48.89957
369.131	48.13706
369.586	49.97313
370.041	47.59948
370.495	47.16015
370.95	44.54385
371.404	49.04154
371.859	52.55283
372.313	45.50363
372.768	46.91893
373.222	48.94578
373.676	46.7391
374.131	48.52198
374.585	51.48732
375.039	51.02259
375.493	54.99262
375.947	51.58427
376.401	52.58609
376.855	53.13237
377.309	50.25179
377.763	50.97487
378.217	53.69315
378.67	52.08363
379.124	55.84662
379.578	52.00168
380.031	53.77355
380.485	52.87826
380.938	52.92072
381.392	53.15842
381.845	53.76856
382.299	51.75031
382.752	51.84697
383.205	54.08967
383.658	51.33463
384.111	53.91119
384.564	52.42008
385.018	52.40932
385.471	53.92163
385.923	54.24687
386.376	53.43594
386.829	52.37676
387.282	54.81847
387.735	54.60037
388.187	54.28551
388.64	53.95854
389.093	54.54931
389.545	52.60848
389.998	52.79444
390.45	54.78445
390.902	54.06503
391.355	53.37601
391.807	53.6943
392.259	53.97409
392.711	53.51718
393.163	53.46523
393.615	54.17057
394.068	54.28352
394.519	53.62023
394.971	53.65527
395.423	53.06549
395.875	54.31476
396.327	53.84378
396.779	53.53237
397.23	53.15339
397.682	53.85785
398.133	54.58283
398.585	54.15447
399.036	53.88005
399.488	53.47459
399.939	54.3649
400.39	53.20513
400.842	51.77576
401.293	53.88807
401.744	53.43558
402.195	52.8859
402.646	53.65269
403.097	52.46023
403.548	52.70601
403.999	52.90997
404.45	52.95511
404.9	53.18156
405.351	52.565
405.802	53.1306
406.253	52.53289
406.703	52.44592
407.154	51.97678
407.604	52.53622
408.055	52.47191
408.505	52.14976
408.955	51.76646
409.406	51.64228
409.856	51.27367
410.306	50.85038
410.756	50.90118
411.206	51.03331
411.656	50.86397
412.106	50.26688
412.556	50.39731
413.006	50.21439
413.456	50.53584
413.905	49.96331
414.355	49.42339
414.805	49.79425
415.254	49.31242
415.704	49.80931
416.153	49.47078
416.603	49.49723
417.052	48.74709
417.502	48.42206
417.951	48.70316
418.4	48.89383
418.849	48.45014
419.298	48.34209
419.748	48.49317
420.197	47.97018
420.646	48.5256
421.094	47.69603
421.543	47.94111
421.992	47.78993
422.441	47.46528
422.89	47.3526
423.338	47.31685
423.787	47.09976
424.236	46.87319
424.684	46.81243
425.133	46.46278
425.581	46.3341
426.029	46.33169
426.478	46.1876
426.926	45.88361
427.374	46.11696
427.822	46.26026
428.27	46.2046
428.718	45.97556
429.166	45.90184
429.614	46.28402
430.062	45.93254
430.51	46.14385
430.958	45.40716
431.406	45.57013
431.853	45.27448
432.301	45.02902
432.749	44.97453
433.196	44.89819
433.644	44.92141
434.091	44.84129
434.538	44.95794
434.986	44.57217
435.433	44.52022
435.88	44.68544
436.327	44.28827
436.775	44.87547
437.222	44.52941
437.669	44.3142
438.116	44.16509
438.563	44.14063
439.009	44.03986
439.456	44.17839
439.903	44.17798
440.35	44.13714
440.796	43.98967
441.243	44.36521
441.689	44.38823
442.136	44.09004
442.582	43.75457
443.029	44.09912
443.475	43.81728
443.921	44.48001
444.368	43.98196
444.814	44.00012
445.26	43.77138
445.706	44.51398
446.152	43.86364
446.598	44.39654
447.044	44.46092
447.49	43.97391
447.936	44.23041
448.381	43.84976
448.827	44.50469
449.273	44.37886
449.718	44.18969
450.164	44.16683
450.61	44.1884
451.055	44.18202
451.5	44.33128
451.946	44.62551
452.391	44.4003
452.836	44.13422
453.282	44.53457
453.727	44.03702
454.172	44.17659
454.617	44.53807
455.062	44.52601
455.507	44.94416
455.952	44.40721
456.396	44.82499
456.841	44.46825
457.286	45.08121
457.731	44.69081
458.175	45.03414
458.62	44.99541
459.064	45.10473
459.509	45.10592
459.953	45.22749
460.398	45.16901
460.842	44.97098
461.286	45.10684
461.73	45.42947
462.174	45.23789
462.619	45.29427
463.063	45.52246
463.507	45.96849
463.951	45.88208
464.394	46.39223
464.838	46.06456
465.282	46.49703
465.726	46.4084
466.17	46.50702
466.613	46.88126
467.057	47.20398
467.5	47.19305
467.944	47.21373
468.387	47.35614
468.831	47.78732
469.274	47.93748
469.717	48.02138
470.16	48.06173
470.603	48.36823
471.047	48.40498
471.49	48.69329
471.933	49.08529
472.376	49.35674
472.818	49.67549
473.261	49.45527
473.704	49.62239
474.147	50.17238
474.59	49.96243
475.032	50.21392
475.475	50.39286
475.917	50.19324
476.36	50.42117
476.802	50.77943
477.245	50.9854
477.687	50.73362
478.129	51.09433
478.571	51.55617
479.013	51.5848
479.456	51.86134
479.898	51.90556
480.34	52.53357
480.782	52.24592
481.224	52.65424
481.665	52.77496
482.107	53.16513
482.549	53.42718
482.991	53.34355
483.432	53.11027
483.874	54.01532
484.315	53.55153
484.757	53.72539
485.198	54.07774
485.64	54.38014
486.081	54.4054
486.522	53.98959
486.963	54.36458
487.405	54.3104
487.846	54.24871
488.287	54.50413
488.728	54.66071
489.169	54.84798
489.61	54.60221
490.05	54.68121
490.491	54.75176
490.932	55.3681
491.373	55.26505
491.813	55.21613
492.254	55.33898
492.694	55.26862
493.135	55.20509
493.575	55.49147
494.016	55.44139
494.456	55.48352
494.896	55.98571
495.336	55.94029
495.777	55.31871
496.217	55.73595
496.657	55.81817
497.097	56.47413
497.537	55.95052
497.977	56.33732
498.416	56.42875
498.856	56.8342
499.296	57.00832
499.736	57.22844
500.175	56.69555
500.615	57.25327
501.054	57.03817
501.494	56.91017
501.933	57.04726
502.373	57.14502
502.812	57.77621
503.251	57.82585
503.69	57.55428
504.129	58.3314
504.569	58.14644
505.008	58.2056
505.447	58.85882
505.886	58.82281
506.324	58.79828
506.763	59.14542
507.202	59.9805
507.641	59.62225
508.079	60.69544
508.518	60.39856
508.957	60.64616
509.395	60.89296
509.834	61.11026
510.272	61.27482
510.71	61.72071
511.149	62.09016
511.587	61.5552
512.025	61.61266
512.463	61.58954
512.901	62.11371
513.339	62.27701
513.777	63.1837
514.215	63.16811
514.653	63.35108
515.091	63.40898
515.529	63.74213
515.966	63.7482
516.404	64.0439
516.842	64.06989
517.279	64.4609
517.717	64.27054
518.154	65.28711
518.592	65.20654
519.029	65.69608
519.466	65.87303
519.904	66.27991
520.341	66.32291
520.778	66.5542
521.215	66.86033
521.652	67.48364
522.089	67.35665
522.526	67.42874
522.963	67.34448
523.399	67.67659
523.836	67.58405
524.273	67.97596
524.71	68.03179
525.146	68.42534
525.583	68.82842
526.019	68.79873
526.456	69.25803
526.892	69.3557
527.328	69.16673
527.765	69.62158
528.201	69.86069
528.637	70.39945
529.073	71.02755
529.509	71.0585
529.945	70.63712
530.381	71.07443
530.817	71.24056
531.253	71.39168
531.689	71.55474
532.124	71.7617
532.56	72.19184
532.996	72.38696
533.431	72.22383
533.867	73.04637
534.302	72.76964
534.738	72.38724
535.173	73.11753
535.608	73.0508
536.044	73.96593
536.479	73.89272
536.914	73.3834
537.349	73.91577
537.784	74.19025
538.219	73.80122
538.654	74.04488
539.089	74.05047
539.524	74.13389
539.959	74.32887
540.393	74.41744
540.828	74.43122
541.263	74.65897
541.697	74.76702
542.132	75.09324
542.566	75.01578
543.001	75.36423
543.435	74.84222
543.869	75.15912
544.303	74.82089
544.738	75.3019
545.172	75.43934
545.606	74.78954
546.04	75.26807
546.474	74.90729
546.908	74.36653
547.342	74.89265
547.775	74.69332
548.209	74.71157
548.643	74.84285
549.077	74.58408
549.51	73.98017
549.944	74.37841
550.377	74.39735
550.811	74.19092
551.244	74.51436
551.677	74.06157
552.111	73.46594
552.544	73.60266
552.977	73.60119
553.41	73.27608
553.843	73.81959
554.276	72.85688
554.709	73.19705
555.142	72.84365
555.575	73.07025
556.008	72.47161
556.44	72.49231
556.873	72.01727
557.306	72.14121
557.738	71.48064
558.171	71.82767
558.603	71.5052
559.036	71.66945
559.468	71.30887
559.9	70.7771
560.333	70.4532
560.765	70.46941
561.197	70.19103
561.629	70.11285
562.061	70.0267
562.493	69.44709
562.925	69.36007
563.357	69.45191
563.789	68.88264
564.22	68.70802
564.652	68.56568
565.084	68.44804
565.515	68.21865
565.947	68.2667
566.378	68.69727
566.81	67.79435
567.241	67.56696
567.672	67.1488
568.104	67.16227
568.535	67.06163
568.966	66.39971
569.397	66.42247
569.828	66.17263
570.259	65.89973
570.69	65.56992
571.121	65.25488
571.552	64.84424
571.983	64.93471
572.414	64.19005
572.844	63.93479
573.275	63.94085
573.705	64.14826
574.136	63.94692
574.566	63.02558
574.997	63.0968
575.427	62.51455
575.857	62.19217
576.288	61.98024
576.718	61.80846
577.148	61.58685
577.578	61.58913
578.008	61.02169
578.438	60.65479
578.868	60.72435
579.298	60.73859
579.728	59.76927
580.157	60.26744
580.587	60.08412
581.017	59.91973
581.446	59.16335
581.876	59.25493
582.305	58.93065
582.735	58.90482
583.164	58.38505
583.593	57.73578
584.023	57.53235
584.452	57.53991
584.881	57.74656
585.31	57.36922
585.739	57.15476
586.168	57.04595
586.597	57.1373
587.026	56.70624
587.455	56.23233
587.884	56.17813
588.312	55.76714
588.741	55.39219
589.17	55.57296
589.598	55.2888
590.027	55.18028
590.455	54.84288
590.884	54.9484
591.312	54.54406
591.74	54.48623
592.168	54.64339
592.597	54.13311
593.025	53.68966
593.453	53.73852
593.881	53.17323
594.309	53.49212
594.737	53.16356
595.165	52.59227
595.592	52.28771
596.02	52.30737
596.448	52.24155
596.875	51.97682
597.303	51.53998
597.73	51.58625
598.158	51.27742
598.585	51.48932
599.013	50.95425
599.44	50.6647
599.867	50.57427
600.294	50.60648
600.722	50.51358
601.149	49.82642
601.576	50.33133
602.003	50.10642
602.43	49.69346
602.856	49.69289
603.283	49.53346
603.71	49.39776
604.137	49.27017
604.563	49.10786
604.99	49.19239
605.416	48.78376
605.843	48.51437
606.269	48.10073
606.696	47.9
607.122	47.7647
607.548	47.54355
607.975	47.64072
608.401	47.54488
608.827	47.2175
609.253	47.52624
609.679	47.39984
610.105	46.87762
610.531	47.20096
610.956	46.85455
611.382	47.09451
611.808	47.06154
612.234	46.52256
612.659	46.40545
613.085	46.7125
613.51	46.3897
613.936	46.33878
614.361	46.08355
614.786	46.31923
615.212	46.08202
615.637	45.82748
616.062	45.95066
616.487	45.85862
616.912	45.89488
617.337	45.85235
617.762	45.79037
618.187	45.40729
618.612	45.59541
619.037	45.1751
619.461	45.38705
619.886	45.52453
620.311	45.26318
620.735	45.04812
621.16	45.16304
621.584	45.04676
622.008	44.74975
622.433	45.04182
622.857	44.97498
623.281	44.99641
623.705	45.08716
624.13	45.23369
624.554	44.97586
624.978	44.99758
625.402	44.77866
625.826	44.99666
626.249	45.11548
626.673	44.88769
627.097	45.16149
627.521	45.35422
627.944	45.21919
628.368	45.18641
628.791	44.67928
629.215	44.81339
629.638	44.85978
630.061	45.2309
630.485	45.15638
630.908	44.95818
631.331	45.10315
631.754	44.99447
632.177	45.14902
632.6	44.91625
633.023	45.21512
633.446	44.79915
633.869	44.91841
634.292	45.58639
634.715	45.47529
635.137	45.12547
635.56	45.44317
635.982	45.67825
636.405	45.46509
636.827	45.61629
637.25	46.00475
637.672	45.39503
638.094	45.88278
638.517	45.77462
638.939	46.46329
639.361	45.89611
639.783	46.13507
640.205	46.51162
640.627	45.93034
641.049	45.99757
641.471	46.30636
641.893	46.84343
642.314	47.1436
642.736	46.91362
643.158	46.87426
643.579	46.89487
644.001	47.15041
644.422	47.22003
644.844	47.50894
645.265	47.87052
645.686	47.61743
646.107	47.73575
646.529	47.96655
646.95	48.40256
647.371	48.46881
647.792	48.50798
648.213	48.96575
648.634	48.59483
649.055	49.54641
649.475	49.35095
649.896	49.3453
650.317	49.78784
650.737	49.51855
651.158	49.73831
651.578	50.15552
651.999	50.23531
652.419	50.34808
652.84	50.53604
653.26	50.97249
653.68	51.0181
654.1	51.04517
654.521	51.62448
654.941	51.47225
655.361	51.36981
655.781	51.46821
656.2	51.21042
656.62	51.95948
657.04	51.83822
657.46	51.94534
657.879	52.06568
658.299	52.78115
658.719	52.91156
659.138	52.59137
659.558	53.02684
659.977	53.12578
660.396	53.50355
660.816	53.47107
661.235	53.43067
661.654	53.59507
662.073	54.16572
662.492	54.75887
662.911	54.44877
663.33	54.42249
663.749	54.52504
664.168	54.85436
664.587	54.57061
665.006	55.10752
665.424	55.33408
665.843	54.93251
666.261	55.71747
666.68	55.55861
667.098	55.7393
667.517	56.1699
667.935	55.29286
668.353	55.45589
668.772	55.18923
669.19	55.70967
669.608	55.6835
670.026	55.84261
670.444	56.32298
670.862	56.06833
671.28	56.64456
671.698	56.43579
672.115	56.97437
672.533	57.10332
672.951	56.65749
673.368	56.78058
673.786	56.45439
674.203	56.74525
674.621	56.77594
675.038	56.59267
675.456	57.0304
675.873	57.03801
676.29	57.29334
676.707	56.72531
677.124	56.82066
677.541	57.02147
677.958	56.48515
678.375	56.89605
678.792	56.75273
679.209	56.97508
679.626	57.11633
680.043	57.05857
680.459	56.53879
680.876	56.70875
681.292	56.83901
681.709	56.66217
682.125	56.86651
682.542	56.75626
682.958	56.4699
683.374	56.49004
683.79	56.06506
684.207	56.42461
684.623	56.36464
685.039	56.46673
685.455	56.47673
685.871	56.12846
686.286	56.17297
686.702	55.86884
687.118	56.43494
687.534	55.82725
687.949	55.6276
688.365	55.68371
688.781	55.21922
689.196	55.32938
689.611	54.95258
690.027	54.92544
690.442	54.59776
690.857	54.98527
691.273	54.33512
691.688	54.77369
692.103	54.1447
692.518	53.56798
692.933	53.96831
693.348	53.35245
693.763	53.21966
694.177	53.2813
694.592	53.33243
695.007	52.62266
695.421	52.40356
695.836	52.32686
696.25	52.07448
696.665	51.72253
697.079	51.57766
697.494	51.71106
697.908	51.261
698.322	51.2296
698.736	50.59518
699.151	50.93923
699.565	50.96184
699.979	51.19037
700.393	50.57698
700.806	50.40123
701.22	49.87035
701.634	49.52268
702.048	49.99243
702.461	49.3727
702.875	49.74417
703.289	49.05191
703.702	49.32751
704.116	48.13559
704.529	49.35001
704.942	48.11018
705.356	48.40385
705.769	47.84906
706.182	47.92467
706.595	47.39771
707.008	47.20812
707.421	46.63318
707.834	46.36619
708.247	46.30517
708.66	45.73285
709.072	45.69253
709.485	45.40335
709.898	45.32155
710.31	44.907
710.723	44.70522
711.135	44.36202
711.548	44.12395
711.96	43.99127
712.373	43.79285
712.785	42.8016
713.197	43.12051
713.609	42.45847
714.021	42.43928
714.433	41.7482
714.845	42.25416
715.257	41.5156
715.669	41.40075
716.081	40.93966
716.493	40.61257
716.904	40.44429
717.316	40.05705
717.727	39.97458
718.139	39.50825
718.55	39.22916
718.962	39.13616
719.373	39.00947
719.784	38.84848
720.196	38.24797
720.607	38.22341
721.018	37.8155
721.429	37.45065
721.84	37.52924
722.251	37.35875
722.662	37.31986
723.073	36.96056
723.483	36.84448
723.894	36.26469
724.305	36.20135
724.715	35.55511
725.126	35.37721
725.536	35.15471
725.947	35.25206
726.357	34.80246
726.768	34.60651
727.178	34.06552
727.588	34.01956
727.998	33.53416
728.408	33.42262
728.818	33.47824
729.228	33.53373
729.638	33.32785
730.048	32.89451
730.458	33.02399
730.868	32.71643
731.277	32.65231
731.687	32.46808
732.097	32.3706
732.506	31.80829
732.916	31.84527
733.325	31.55118
733.734	32.06201
734.144	31.04517
734.553	31.30638
734.962	30.63281
735.371	30.92708
735.78	30.31448
736.189	30.16194
736.598	29.88153
737.007	30.02145
737.416	29.61399
737.825	30.09262
738.233	29.4337
738.642	29.60021
739.051	29.40617
739.459	29.44999
739.868	29.02497
740.276	28.8164
740.684	28.78172
741.093	28.61919
741.501	28.58701
741.909	28.65568
742.317	28.54083
742.725	28.35687
743.133	28.42312
743.541	27.67893
743.949	27.68377
744.357	27.75246
744.765	28.32629
745.173	27.02284
745.58	27.89986
745.988	27.15133
746.396	27.82764
746.803	27.16403
747.211	27.14854
747.618	26.85247
748.025	26.92235
748.433	26.85465
748.84	26.39629
749.247	26.58529
749.654	26.24648
750.061	26.6257
750.468	25.78571
750.875	26.05003
751.282	25.59733
751.689	26.04259
752.096	25.90823
752.502	25.81219
752.909	25.43317
753.316	25.58357
753.722	25.73302
754.129	25.21572
754.535	25.80104
754.941	25.35814
755.348	25.72676
755.754	24.94323
756.16	25.17973
756.566	24.51359
756.972	24.95142
757.378	24.76288
757.784	24.72632
758.19	24.89587
758.596	24.38335
759.002	24.84778
759.408	23.99858
759.813	24.72512
760.219	24.14381
760.624	24.75381
761.03	24.13286
761.435	24.0974
761.841	23.82708
762.246	23.52813
762.651	23.98718
763.057	23.58743
763.462	24.69628
763.867	24.28249
764.272	24.58477
764.677	24.56112
765.082	24.47674
765.487	24.19353
765.892	24.27592
766.296	24.27344
766.701	23.58511
767.106	24.0997
767.51	23.57918
767.915	24.22237
768.319	23.91661
768.724	23.77282
769.128	23.81946
769.532	23.47839
769.936	24.31414
770.341	23.67472
770.745	23.8597
771.149	23.30157
771.553	23.8171
771.957	23.60707
772.361	23.58144
772.764	23.5211
773.168	23.40296
773.572	23.70573
773.976	22.77362
774.379	23.28259
774.783	23.09651
775.186	22.95683
775.59	23.27198
775.993	23.12391
776.396	23.47632
776.8	22.9628
777.203	22.7283
777.606	23.13308
778.009	22.60997
778.412	23.22341
778.815	22.38204
779.218	23.28445
779.621	22.75893
780.023	22.94038
780.426	22.9423
780.829	23.1261
781.231	23.33289
781.634	22.90282
782.036	23.094
782.439	22.72064
782.841	22.87568
783.244	23.03201
783.646	22.54816
784.048	23.36659
784.45	22.69387
784.852	22.97557
785.254	22.63729
785.656	22.80541
786.058	22.64298
786.46	22.11894
786.862	22.51111
787.264	22.34982
787.665	22.44402
788.067	22.34333
788.468	22.66153
788.87	22.89861
789.271	22.54135
789.673	22.83917
790.074	22.87962
790.475	22.59173
790.877	23.10996
791.278	22.42974
791.679	22.72207
792.08	22.70551
792.481	22.51202
792.882	22.66924
793.283	22.29945
793.683	22.85842
794.084	22.28291
794.485	22.46462
794.886	23.03027
795.286	22.16361
795.687	22.63148
796.087	22.05117
796.487	22.74339
796.888	22.82094
797.288	22.34564
797.688	23.02281
798.088	22.24582
798.489	22.75607
798.889	22.7897
799.289	22.68971
799.689	22.88463
800.088	22.79722
800.488	22.58443
800.888	22.95837
801.288	22.56266
801.687	23.12091
802.087	22.81735
802.486	23.29265
802.886	22.695
803.285	22.97719
803.685	23.22815
804.084	22.86251
804.483	22.81451
804.882	23.17045
805.281	22.38208
805.68	23.42842
806.079	22.83997
806.478	23.27769
806.877	23.47487
807.276	22.68138
807.675	23.17333
808.074	22.9974
808.472	22.80709
808.871	23.2391
809.269	22.3649
809.668	22.96869
810.066	23.31276
810.465	22.75716
810.863	23.14168
811.261	22.72349
811.659	23.07142
812.057	23.36891
812.455	22.99994
812.853	23.3999
813.251	22.83075
813.649	22.72349
814.047	23.64889
814.445	22.74643
814.843	22.60832
815.24	23.21671
815.638	22.83828
816.035	22.96874
816.433	22.57323
816.83	22.81899
817.228	23.03336
817.625	22.9872
818.022	23.02993
818.419	23.04947
818.816	22.80015
819.213	23.24778
819.61	22.70876
820.007	23.24355
820.404	23.6636
820.801	22.88297
821.198	23.89232
821.595	23.60828
821.991	23.56355
822.388	24.40399
822.784	24.0512
823.181	24.73557
823.577	24.98518
823.974	24.79553
824.37	25.22168
824.766	24.65658
825.162	24.64156
825.558	24.34735
825.954	23.91682
826.35	24.206
826.746	24.74809
827.142	24.38755
827.538	24.68251
827.934	25.03128
828.33	24.45394
828.725	24.69475
829.121	24.31575
829.516	24.16619
829.912	24.33755
830.307	23.95136
830.703	23.80101
831.098	23.69541
831.493	23.66193
831.888	23.96095
832.283	23.37663
832.678	23.59054
833.073	23.96587
833.468	23.90169
833.863	23.79359
834.258	24.34997
834.653	24.24511
835.048	24.60715
835.442	24.5807
835.837	24.14224
836.231	24.6058
836.626	24.20944
837.02	23.90705
837.415	24.29662
837.809	23.78799
838.203	24.43225
838.597	23.94507
838.991	23.0251
839.385	23.71412
839.779	23.97731
840.173	23.65388
840.567	24.30543
840.961	24.76631
841.355	24.21136
841.748	24.7438
842.142	24.87159
842.536	23.78478
842.929	25.29002
843.323	24.42067
843.716	23.988
844.109	24.93989
844.503	24.36776
844.896	24.38399
845.289	25.24847
845.682	25.43104
846.075	24.37835
846.468	24.76338
846.861	25.12734
847.254	24.73835
847.647	24.96506
848.04	24.57461
848.432	25.37523
848.825	24.83608
849.217	24.3582
849.61	24.89697
850.002	24.41013
850.395	24.5853
850.787	25.14127
851.179	25.15993
851.572	24.44285
851.964	24.69995
852.356	25.43896
852.748	24.87621
853.14	25.02772
853.532	24.87209
853.924	24.63962
854.315	24.69116
854.707	24.48153
855.099	25.74855
855.491	24.42002
855.882	25.19828
856.274	24.2754
856.665	24.81618
857.056	24.54772
857.448	24.44992
857.839	26.09898
858.23	25.63628
858.621	25.151
859.012	25.30241
859.403	24.61513
859.794	25.30175
860.185	25.77018
860.576	24.47121
860.967	25.13121
861.358	25.19467
861.748	24.43066
862.139	24.36932
862.529	25.26844
862.92	24.2528
863.31	25.00292
863.701	25.05581
864.091	24.64387
864.481	25.44944
864.872	25.17283
865.262	25.01217
865.652	24.90716
866.042	24.28338
866.432	24.71139
866.822	25.31016
867.211	25.22974
867.601	24.95602
867.991	25.14614
868.381	25.4849
868.77	25.29137
869.16	25.10927
869.549	24.77697
869.939	24.24446
870.328	24.89687
870.717	24.80487
871.106	24.25134
871.496	24.706
871.885	24.87886
872.274	24.25197
872.663	25.54729
873.052	24.67442
873.441	24.86868
873.829	24.50798
874.218	24.4624
874.607	24.79962
874.996	24.71154
875.384	25.177
875.773	24.99142
876.161	24.47012
876.549	25.03116
876.938	24.29945
877.326	24.51774
877.714	25.07809
878.102	24.36077
878.491	24.57005
878.879	24.43455
879.267	24.24323
879.655	24.33397
880.042	24.92101
880.43	24.84055
880.818	24.50239
881.206	25.34834
881.593	25.72554
881.981	25.07701
882.368	25.84605
882.756	25.72576
883.143	25.38764
883.53	25.51288
883.918	25.50623
884.305	24.90648
884.692	25.33147
885.079	25.54014
885.466	24.37338
885.853	24.9019
886.24	25.0482
886.627	24.81422
887.014	24.61333
887.4	24.87972
887.787	24.87616
888.174	24.87878
888.56	25.07404
888.947	25.22159
889.333	24.77807
889.719	24.69298
890.106	24.987
890.492	24.38379
890.878	24.18963
891.264	24.46294
891.65	24.2142
892.036	24.01853
892.422	24.73625
892.808	23.85898
893.194	23.58736
893.58	24.74134
893.965	24.74957
894.351	23.96776
894.736	24.50788
895.122	24.54381
895.507	23.96844
895.893	24.37779
896.278	24.40879
896.663	24.27509
897.049	24.11344
897.434	24.64399
897.819	23.9213
898.204	24.30789
898.589	24.93589
898.974	24.36628
899.359	24.48253
899.743	23.75493
900.128	24.3481
900.513	23.22617
900.897	23.7672
901.282	24.11855
901.667	23.98151
902.051	23.68272
902.435	23.83968
902.82	23.40381
903.204	22.93648
903.588	24.07867
903.972	24.5644
904.356	23.73738
904.74	23.7424
905.124	24.64273
905.508	23.91915
905.892	23.92548
906.276	24.74518
906.659	24.04525
907.043	24.41228
907.427	24.32041
907.81	24.17251
908.194	24.41708
908.577	24.36522
908.96	24.32929
909.344	24.30962
909.727	24.38034
910.11	24.64338
910.493	24.17653
910.876	23.40185
911.259	24.30029
911.642	24.63078
912.025	23.7876
912.408	23.56718
912.79	23.66927
913.173	23.03805
913.556	23.6429
913.938	23.77541
914.321	24.18088
914.703	23.09696
915.086	23.37941
915.468	24.09668
915.85	23.70836
916.232	23.7378
916.614	23.58134
916.996	24.54055
917.378	23.63239
917.76	23.91564
918.142	24.24594
918.524	24.64051
918.906	23.95771
919.288	23.71049
919.669	24.11127
920.051	24.25943
920.432	24.58394
920.814	24.95503
921.195	23.41362
921.577	23.79852
921.958	23.22434
922.339	23.42445
922.72	23.68246
923.101	24.35211
923.482	24.28133
923.863	23.84802
924.244	23.76202
924.625	23.978
925.006	23.67208
925.387	22.65618
925.767	23.68939
926.148	23.61039
926.528	23.27259
926.909	24.01005
927.289	23.90621
927.67	23.67919
928.05	23.17148
928.43	23.39809
928.81	23.95782
929.191	23.10131
929.571	22.75686
929.951	22.53751
930.331	23.79322
930.71	23.96322
931.09	23.55172
931.47	24.17395
931.85	23.43657
932.229	22.50368
932.609	23.56145
932.988	24.44354
933.368	22.42192
933.747	22.79599
934.127	23.51644
934.506	23.06698
934.885	22.81566
935.264	22.46807
935.643	22.9893
936.022	23.46126
936.401	22.54232
936.78	22.5381
937.159	23.22871
937.538	22.20277
937.916	22.2003
938.295	23.4179
938.674	22.60907
939.052	23.86931
939.431	22.93122
939.809	23.7758
940.187	23.41071
940.566	23.14282
940.944	22.6219
941.322	23.54692
941.7	23.16319
942.078	21.83524
942.456	23.89191
942.834	22.95369
943.212	22.64171
943.59	22.09134
943.968	22.57584
944.345	21.34243
944.723	23.15955
945.1	21.99733
945.478	20.96019
945.855	22.22326
946.233	21.74741
946.61	22.16119
946.987	22.15361
947.365	21.92445
947.742	20.71204
948.119	22.3306
948.496	21.15675
948.873	20.92568
949.25	22.16024
949.626	22.17861
950.003	21.26675
950.38	20.4145
950.756	20.68474
951.133	19.77996
951.51	19.81431
951.886	19.79507
952.262	22.36981
952.639	21.79418
953.015	20.39528
953.391	20.8257
953.767	20.85399
954.143	20.04696
954.519	20.37185
954.895	21.31826
955.271	22.14706
955.647	18.31288
956.023	20.77395
956.399	19.8449
956.774	21.53418
957.15	19.14418
957.525	21.22423
957.901	20.01169
958.276	20.10601
958.652	20.64507
959.027	20.11899
959.402	20.33612
959.777	18.91605
960.152	19.75084
960.527	20.17199
960.902	21.03842
961.277	20.83757
961.652	18.44382
962.027	20.09154
962.402	19.69598
962.776	19.84876
963.151	19.42463
963.525	18.17557
963.9	20.61758
964.274	22.68247
964.649	20.73126
965.023	21.30064
965.397	20.62374
965.771	18.1962
966.146	18.73411
966.52	21.24745
966.894	20.1633
967.268	19.24219
967.641	19.65659
968.015	19.39873
968.389	19.70599
968.763	18.78376
969.136	19.1735
969.51	20.28928
969.883	19.03338
970.257	18.98876
970.63	19.85075
971.003	20.64437
971.377	18.81833
971.75	18.38214
972.123	20.86908
972.496	20.41235
972.869	19.28318
973.242	20.28798
973.615	20.31719
973.988	20.02949
974.36	17.89173
974.733	19.23953
975.106	19.72346
975.478	20.90687
975.851	19.70336
976.223	18.70162
976.596	18.04389
976.968	20.59312
977.34	20.05229
977.712	19.2982
978.085	18.70162
978.457	19.53399
978.829	19.9944
979.201	19.25593
979.573	19.12932
979.944	19.8055
980.316	19.89724
980.688	19.76873
981.059	19.98529
981.431	19.25886
981.803	20.56538
982.174	21.32393
982.545	20.47132
982.917	19.33993
983.288	20.05667
983.659	18.98893
984.03	19.88603
984.401	21.39299
984.772	17.88366
985.143	20.67862
985.514	18.98657
985.885	21.34849
986.256	21.52439
986.627	19.93529
986.997	18.89238
987.368	18.95728
987.738	18.11841
988.109	18.2455
988.479	18.49152
988.85	18.07315
989.22	19.3035
989.59	18.59039
989.96	16.07823
990.33	17.47469
990.7	18.985
991.07	18.58885
991.44	18.07128
991.81	17.51126
992.18	18.96046
992.549	19.44551
992.919	18.81282
993.289	18.72106
993.658	17.29285
994.028	19.53661
994.397	19.84792
994.766	18.13233
995.136	21.28854
995.505	18.48571
995.874	21.60447
996.243	17.40287
996.612	20.12238
996.981	16.918
997.35	19.56215
997.719	18.50487
998.088	20.06937
998.456	21.20476
998.825	20.62851
999.194	17.42495
999.562	19.59934
999.931	20.24868
1000.299	16.47262
1000.667	18.32463
1001.036	18.54458
1001.404	20.65783
1001.772	20.32836
1002.14	16.82835
1002.508	20.26721
1002.876	18.42772
1003.244	20.63892
1003.612	18.16985
1003.98	19.43873
1004.347	17.06869
1004.715	16.82121
1005.083	18.85946
1005.45	17.88699
1005.818	18.27097
1006.185	17.35912
1006.552	19.17643
1006.92	21.79671
1007.287	17.95868
1007.654	15.35651
1008.021	14.32092
1008.388	20.53263
1008.755	18.8313
1009.122	19.87482
1009.489	17.62444
1009.856	21.36433
1010.222	17.23645
1010.589	14.52421
1010.956	21.97044
1011.322	17.0714
1011.689	20.79587
1012.055	16.75885
1012.421	19.45823
1012.788	15.40023
1013.154	19.22101
1013.52	18.96858
1013.886	15.48837
1014.252	20.66188
1014.618	19.40936
1014.984	22.04255
1015.35	17.86748
1015.716	22.54599
1016.081	22.52554
1016.447	18.08093
1016.813	24.38611
1017.178	19.00343
1017.544	21.29238
1017.909	17.648
1018.274	19.05014
1018.64	16.87273
1019.005	17.69876
1019.37	14.08616
1019.735	22.19667
1020.1	16.9861
1020.465	15.85985
1020.83	16.91503
1021.195	10.86227
1021.56	23.84843
1021.924	14.92403
1022.289	13.90648
1022.654	19.14381
1023.018	20.07784
1023.383	16.24373
1023.747	21.14431
1024.111	7.27871
1024.476	15.47042
1024.84	14.27227
1025.204	20.43628
1025.568	3.7003
1025.932	15.92544
1026.296	11.64009
1026.66	20.35098
1027.024	16.20338
1027.387	12.35462
1027.751	14.27461
1028.115	18.33624
1028.478	16.90262
1028.842	27.62702
1029.205	14.8118
1029.569	15.45661
1029.932	19.1012
1030.295	17.88767
1030.659	6.77898
1031.022	16.04257
1031.385	30.51825
1031.748	13.40206
1032.111	13.81474
1032.474	13.27255
1032.836	22.35176
1033.199	4.97027
1033.562	14.89594
1033.924	15.86309
1034.287	18.61075
1034.65	10.75397
1035.012	6.17855
1035.374	39.98465
1035.737	14.73133
1036.099	24.19497
1036.461	15.14234
1036.823	9.2162
1037.185	25.14334
1037.547	9.56579
1037.909	22.10753
1038.271	25.35608
1038.633	9.92636
1038.995	19.98992
1039.356	13.34544
1039.718	19.92213
1040.08	18.20168
1040.441	15.95
1040.803	6.29038
1041.164	-2.18061
1041.525	10.94862
1041.886	6.96261
1042.248	24.05056
1042.609	23.54092
1042.97	21.83314
1043.331	20.92041
1043.692	17.23484
1044.053	20.34176
1044.413	0
1044.774	31.70496
1045.135	8.15106
1045.495	26.79035
1045.856	-2.32457
1046.216	12.07296
1046.577	6.30371
1046.937	15.69318
1047.298	18.77293
