Data from 1017water_Reflection__7__21-00-47-496.txt Node

Date: Fri Oct 17 21:00:47 AST 2025
User: lin
Spectrometer: SR600411
Trigger mode: 0
Integration Time (sec): 5.846600E-2
Scans to average: 5
Nonlinearity correction enabled: true
Boxcar width: 0
Storing dark spectrum: false
XAxis mode: Wavelengths
Number of Pixels in Spectrum: 2048
>>>>>Begin Spectral Data<<<<<
187.982	50.32321
188.456	48.43333
188.93	36.64168
189.403	54.81339
189.877	46.81989
190.351	53.40031
190.825	43.12489
191.298	51.39334
191.772	35.47265
192.246	44.96586
192.719	38.93252
193.193	37.9806
193.666	40.82186
194.139	43.33632
194.613	43.6153
195.086	54.50041
195.559	49.697
196.033	57.00723
196.506	51.00108
196.979	53.86329
197.452	53.87996
197.925	54.38164
198.398	48.97038
198.871	79.59552
199.344	48.25871
199.816	55.76993
200.289	46.85016
200.762	45.60007
201.235	47.52895
201.707	46.216
202.18	43.08515
202.652	44.75903
203.125	44.43653
203.597	33.32754
204.07	53.6225
204.542	25.53656
205.014	46.84971
205.486	43.59629
205.959	49.69579
206.431	7.54498
206.903	38.20923
207.375	14.70251
207.847	27.20056
208.319	32.58882
208.791	22.93197
209.263	12.97418
209.734	26.61334
210.206	69.08626
210.678	26.34567
211.15	11.10865
211.621	11.64087
212.093	14.87301
212.564	45.7951
213.036	52.20681
213.507	54.04678
213.979	17.04299
214.45	40.404
214.921	31.9957
215.392	2.45844
215.864	45.29341
216.335	26.66319
216.806	42.15195
217.277	6.42072
217.748	28.94118
218.219	58.09018
218.69	44.96214
219.161	-4.54483
219.631	70.18801
220.102	46.50528
220.573	32.02574
221.043	8.9731
221.514	14.51309
221.985	38.37921
222.455	36.53369
222.926	0.90889
223.396	37.49407
223.866	32.62745
224.337	53.03781
224.807	-8.2338
225.277	2.81652
225.747	18.79988
226.217	49.02459
226.687	30.43093
227.157	32.56383
227.627	-10.25467
228.097	52.1392
228.567	38.04782
229.037	22.13294
229.507	47.43849
229.977	34.06189
230.446	10.9575
230.916	34.03838
231.386	28.41723
231.855	40.70761
232.325	43.69169
232.794	29.65615
233.263	40.90278
233.733	47.61386
234.202	11.67604
234.671	18.25747
235.14	30.49054
235.61	63.32782
236.079	12.76389
236.548	36.3586
237.017	14.41171
237.486	23.68014
237.955	-21.64443
238.424	10.11076
238.892	50.48034
239.361	22.21761
239.83	26.82609
240.299	30.90445
240.767	11.10988
241.236	53.08243
241.704	34.68949
242.173	43.58595
242.641	13.7231
243.109	49.2471
243.578	35.93167
244.046	7.6914
244.514	46.89709
244.982	44.9951
245.451	21.50227
245.919	17.89197
246.387	63.42668
246.855	33.32687
247.323	5.55462
247.791	16.08963
248.258	48.47995
248.726	20.22188
249.194	30.22897
249.662	44.57426
250.129	-26.11889
250.597	34.22929
251.064	34.52616
251.532	4.25456
251.999	-11.36143
252.467	81.4404
252.934	43.40458
253.401	20.40502
253.869	8.07935
254.336	65.11241
254.803	29.50319
255.27	8.4196
255.737	37.95793
256.204	35.20806
256.671	47.51977
257.138	68.1771
257.605	46.48562
258.072	8.97184
258.539	22.78206
259.005	37.29576
259.472	31.36603
259.939	19.75055
260.405	9.88851
260.872	34.28259
261.338	16.5186
261.805	25.75258
262.271	44.74825
262.737	30.10365
263.203	42.1016
263.67	26.60129
264.136	34.30047
264.602	12.93928
265.068	41.85633
265.534	19.48786
266	8.92677
266.466	5.26241
266.932	38.51887
267.398	12.93928
267.864	27.42918
268.329	25.94922
268.795	9.72097
269.261	54.36388
269.726	38.60912
270.192	21.34536
270.657	29.33026
271.123	21.69455
271.588	49.99743
272.053	52.58592
272.519	27.27013
272.984	18.08235
273.449	5.1011
273.914	-25.9207
274.379	45.82979
274.844	29.08642
275.309	26.46666
275.774	62.80433
276.239	25.52838
276.704	23.60854
277.169	-20.47788
277.634	32.64879
278.098	-12.11944
278.563	42.46222
279.028	-10.1434
279.492	73.78247
279.957	1.42838
280.421	31.89157
280.886	31.17885
281.35	73.80631
281.814	-2.80313
282.279	9.45821
282.743	0.9998
283.207	13.53945
283.671	4.8773
284.135	41.17158
284.599	17.14089
285.063	43.87278
285.527	54.32447
285.991	64.17606
286.455	32.96305
286.919	51.89483
287.382	33.64925
287.846	40.86407
288.31	6.38187
288.773	12.97417
289.237	55.92645
289.7	5.26185
290.164	9.45821
290.627	49.45777
291.09	22.98546
291.554	26.22718
292.017	58.24748
292.48	-22.53133
292.943	87.71808
293.406	45.78914
293.869	28.40555
294.332	46.15001
294.795	50.51067
295.258	-27.37517
295.721	44.99511
296.184	1.81799
296.646	37.85063
297.109	25.57816
297.572	42.69232
298.034	38.27526
298.497	26.59212
298.959	34.03838
299.422	12.32721
299.884	28.9207
300.346	36.5816
300.809	31.77112
301.271	43.52528
301.733	20.50905
302.195	28.25903
302.657	22.9965
303.119	43.36946
303.581	1.26563
304.043	38.83011
304.505	29.88145
304.967	14.28402
305.429	19.38472
305.891	-8.88717
306.352	36.04259
306.814	16.89943
307.275	52.68359
307.737	53.53048
308.198	40.21302
308.66	17.71924
309.121	16.83947
309.583	15.78747
310.044	44.60903
310.505	20.87615
310.966	6.45087
311.428	52.37681
311.889	10.52419
312.35	29.5878
312.811	26.96283
313.272	31.24593
313.733	79.99684
314.193	91.91932
314.654	49.62827
315.115	9.19397
315.576	23.65259
316.036	15.25122
316.497	37.49555
316.957	21.2352
317.418	52.47026
317.878	-29.99383
318.339	32.14044
318.799	5.60636
319.259	31.70381
319.72	52.8046
320.18	17.01865
320.64	23.99639
321.1	3.41804
321.56	23.00489
322.02	3.19091
322.48	24.04778
322.94	0.95219
323.4	22.3372
323.86	14.08281
324.319	25.9249
324.779	55.41763
325.239	31.81346
325.698	31.30892
326.158	54.9406
326.617	75.90062
327.077	28.29763
327.536	46.90959
327.996	9.18206
328.455	36.76158
328.914	-14.66417
329.373	18.1802
329.832	66.3222
330.292	16.45355
330.751	54.71179
331.21	-40.67129
331.668	56.19246
332.127	29.74706
332.586	77.23149
333.045	32.73844
333.504	-22.21932
333.962	77.67473
334.421	92.2067
334.88	-22.53134
335.338	13.79174
335.797	-41.29903
336.255	-11.39042
336.714	49.99387
337.172	22.21914
337.63	-1.17627
338.088	59.62784
338.547	45.27783
339.005	38.9429
339.463	16.66436
339.921	-21.8153
340.379	26.96282
340.837	30.66351
341.295	6.74047
341.753	44.78698
342.21	55.12439
342.668	44.03138
343.126	40.19123
343.584	23.95488
344.041	22.67705
344.499	9.67581
344.956	-3.44766
345.414	33.76283
345.871	46.1481
346.328	33.33017
346.786	35.33958
347.243	-23.74535
347.7	14.99798
348.157	-42.84698
348.614	27.92351
349.071	-82.48808
349.528	24.99673
349.985	34.77642
350.442	-8.33183
350.899	40.90488
351.356	62.21804
351.812	6.66556
352.269	40.24
352.726	47.11027
353.182	77.93886
353.639	34.87793
354.095	10.11076
354.552	55.44061
355.008	-29.84561
355.465	19.48787
355.921	36.36011
356.377	28.73211
356.833	44.33445
357.289	61.01139
357.745	-14.94963
358.201	21.77878
358.657	32.13681
359.113	23.68014
359.569	37.21995
360.025	43.47267
360.481	62.20132
360.937	34.58408
361.392	41.85219
361.848	45.22783
362.303	37.57699
362.759	49.17486
363.214	35.57554
363.67	45.27265
364.125	41.50712
364.581	31.58703
365.036	52.27252
365.491	43.62303
365.946	41.72256
366.401	54.2106
366.856	44.50777
367.311	53.63423
367.766	49.98059
368.221	54.32311
368.676	47.391
369.131	52.58584
369.586	45.944
370.041	50.05987
370.495	49.03056
370.95	47.81247
371.404	54.69977
371.859	53.02457
372.313	46.96906
372.768	51.28515
373.222	50.95152
373.676	52.15905
374.131	52.82877
374.585	55.53888
375.039	49.74724
375.493	53.59933
375.947	51.78323
376.401	53.80507
376.855	50.72964
377.309	50.13905
377.763	51.88116
378.217	55.36476
378.67	53.21189
379.124	53.3902
379.578	52.4955
380.031	53.34404
380.485	52.67955
380.938	52.50408
381.392	51.86956
381.845	54.01386
382.299	51.42828
382.752	53.09286
383.205	55.24053
383.658	51.44012
384.111	52.36253
384.564	52.34979
385.018	51.64312
385.471	51.70596
385.923	53.17031
386.376	51.65713
386.829	53.84852
387.282	53.10185
387.735	53.14258
388.187	53.24237
388.64	53.0885
389.093	55.08153
389.545	53.0701
389.998	53.90306
390.45	53.71049
390.902	54.17679
391.355	53.97051
391.807	54.06058
392.259	53.84716
392.711	53.35029
393.163	53.82882
393.615	54.26503
394.068	54.20111
394.519	54.08492
394.971	54.12576
395.423	54.13673
395.875	55.02161
396.327	55.18588
396.779	53.55907
397.23	54.0519
397.682	53.81967
398.133	54.20275
398.585	53.40731
399.036	53.46492
399.488	53.99675
399.939	54.27614
400.39	52.95761
400.842	53.83172
401.293	54.06766
401.744	53.22959
402.195	53.33438
402.646	52.9675
403.097	53.33377
403.548	52.80034
403.999	52.54284
404.45	52.6948
404.9	52.53742
405.351	52.49067
405.802	52.42444
406.253	52.79808
406.703	52.89526
407.154	52.14271
407.604	52.52204
408.055	52.2736
408.505	52.40556
408.955	51.69956
409.406	51.29835
409.856	51.89923
410.306	51.38324
410.756	50.82939
411.206	50.76998
411.656	50.40878
412.106	50.34045
412.556	49.83607
413.006	50.69929
413.456	50.27205
413.905	49.69915
414.355	49.17949
414.805	50.16918
415.254	49.65466
415.704	49.61753
416.153	49.26749
416.603	49.22931
417.052	48.89261
417.502	48.87272
417.951	48.83241
418.4	48.87075
418.849	48.59788
419.298	48.0547
419.748	48.43758
420.197	48.22247
420.646	48.65716
421.094	47.59837
421.543	48.13683
421.992	47.52821
422.441	47.58439
422.89	47.33017
423.338	47.33281
423.787	47.5526
424.236	46.63696
424.684	46.85972
425.133	46.51293
425.581	46.54624
426.029	45.98104
426.478	45.79278
426.926	45.62228
427.374	45.68632
427.822	45.79676
428.27	45.94156
428.718	46.04665
429.166	45.69206
429.614	46.26554
430.062	45.30357
430.51	45.79305
430.958	45.55851
431.406	45.30237
431.853	45.69291
432.301	45.24996
432.749	45.21402
433.196	45.17452
433.644	44.88097
434.091	44.76721
434.538	44.69585
434.986	44.87315
435.433	44.8713
435.88	44.88933
436.327	44.62552
436.775	44.73905
437.222	43.78749
437.669	44.59398
438.116	44.01734
438.563	43.95693
439.009	44.29159
439.456	44.03388
439.903	44.7521
440.35	43.925
440.796	44.19708
441.243	44.70536
441.689	44.00051
442.136	44.55362
442.582	44.64076
443.029	44.36094
443.475	43.82533
443.921	44.45001
444.368	43.92881
444.814	44.07238
445.26	43.68997
445.706	44.19405
446.152	44.26481
446.598	43.94237
447.044	44.22675
447.49	44.20454
447.936	44.46889
448.381	44.11107
448.827	44.49352
449.273	44.64042
449.718	44.31219
450.164	44.54247
450.61	44.14511
451.055	44.42042
451.5	44.71269
451.946	44.42985
452.391	43.9606
452.836	44.05387
453.282	44.24946
453.727	44.16503
454.172	44.52298
454.617	44.64071
455.062	44.42942
455.507	44.63213
455.952	44.49521
456.396	44.67621
456.841	44.97524
457.286	44.91251
457.731	44.75058
458.175	44.84779
458.62	45.17235
459.064	45.03916
459.509	45.30502
459.953	45.34188
460.398	45.42387
460.842	45.31652
461.286	45.29264
461.73	45.74506
462.174	45.79203
462.619	45.40152
463.063	45.82208
463.507	45.67473
463.951	46.42482
464.394	46.22626
464.838	46.55456
465.282	46.28043
465.726	46.50027
466.17	46.6907
466.613	46.8895
467.057	47.41507
467.5	47.71817
467.944	47.39036
468.387	47.49092
468.831	48.05293
469.274	48.18993
469.717	48.25397
470.16	48.11958
470.603	48.4005
471.047	48.65291
471.49	48.83267
471.933	49.18598
472.376	49.39896
472.818	49.84791
473.261	49.87447
473.704	49.85005
474.147	50.60495
474.59	50.0789
475.032	50.4286
475.475	50.92586
475.917	50.47259
476.36	50.82616
476.802	50.78396
477.245	51.12825
477.687	51.33806
478.129	51.26114
478.571	51.7318
479.013	51.76366
479.456	51.83808
479.898	52.29017
480.34	52.43947
480.782	52.64834
481.224	52.69828
481.665	53.3254
482.107	53.57496
482.549	53.91374
482.991	53.6761
483.432	53.62961
483.874	53.67029
484.315	53.9323
484.757	53.85264
485.198	54.31715
485.64	54.47372
486.081	54.47432
486.522	54.34931
486.963	54.37103
487.405	54.67908
487.846	54.88106
488.287	55.31445
488.728	54.88832
489.169	54.9996
489.61	54.69162
490.05	54.86896
490.491	55.00207
490.932	55.61264
491.373	55.15942
491.813	55.11498
492.254	55.01705
492.694	55.5076
493.135	55.87612
493.575	55.56218
494.016	55.8726
494.456	55.75456
494.896	55.7991
495.336	55.6416
495.777	55.86569
496.217	56.29239
496.657	55.97773
497.097	56.35696
497.537	55.91504
497.977	56.73367
498.416	56.75538
498.856	56.56079
499.296	57.07184
499.736	57.28677
500.175	56.89176
500.615	56.59746
501.054	57.05082
501.494	57.15823
501.933	57.48298
502.373	57.52756
502.812	57.82316
503.251	57.92822
503.69	57.92522
504.129	58.49969
504.569	58.55561
505.008	58.4731
505.447	58.88052
505.886	58.68911
506.324	59.06199
506.763	59.28969
507.202	60.02032
507.641	59.85532
508.079	59.85195
508.518	60.60645
508.957	60.51277
509.395	61.14239
509.834	61.37359
510.272	61.16501
510.71	61.93909
511.149	61.51366
511.587	61.59434
512.025	61.55377
512.463	61.92623
512.901	62.22102
513.339	62.79858
513.777	63.38268
514.215	63.36492
514.653	63.30842
515.091	63.37797
515.529	63.77477
515.966	64.21727
516.404	63.97811
516.842	64.34216
517.279	64.42097
517.717	64.47386
518.154	65.15695
518.592	65.43709
519.029	65.43182
519.466	65.86835
519.904	66.25193
520.341	66.47696
520.778	66.2121
521.215	66.9965
521.652	67.28137
522.089	67.46193
522.526	67.11611
522.963	67.0964
523.399	67.2044
523.836	67.51729
524.273	67.97293
524.71	68.69749
525.146	68.36931
525.583	69.05206
526.019	69.29753
526.456	69.03634
526.892	69.52658
527.328	69.71616
527.765	69.76545
528.201	70.0249
528.637	70.59381
529.073	70.90296
529.509	71.08971
529.945	70.78905
530.381	71.39273
530.817	70.70279
531.253	71.13379
531.689	72.17483
532.124	71.63119
532.56	72.25652
532.996	72.61941
533.431	71.58135
533.867	72.63416
534.302	73.05681
534.738	73.1472
535.173	72.92981
535.608	73.08951
536.044	73.60043
536.479	73.57642
536.914	73.80033
537.349	73.63495
537.784	73.45972
538.219	73.35941
538.654	73.80015
539.089	74.13639
539.524	74.66707
539.959	73.79797
540.393	74.26063
540.828	74.84953
541.263	74.76898
541.697	74.52477
542.132	74.99247
542.566	75.00182
543.001	74.69926
543.435	75.12413
543.869	74.90957
544.303	74.88408
544.738	74.90691
545.172	75.33853
545.606	75.12229
546.04	74.95646
546.474	75.06078
546.908	74.79901
547.342	74.72403
547.775	74.83367
548.209	75.2789
548.643	74.70149
549.077	74.89058
549.51	74.49916
549.944	74.36451
550.377	74.73108
550.811	74.77579
551.244	74.88507
551.677	73.86977
552.111	73.62575
552.544	73.64058
552.977	73.50435
553.41	73.14515
553.843	73.88898
554.276	72.87422
554.709	72.87286
555.142	72.87861
555.575	72.95944
556.008	72.93247
556.44	71.94344
556.873	72.20885
557.306	72.70872
557.738	72.27271
558.171	71.49369
558.603	71.65585
559.036	71.44235
559.468	71.37432
559.9	71.10058
560.333	70.40805
560.765	70.20959
561.197	70.00165
561.629	69.97381
562.061	70.16853
562.493	69.61883
562.925	69.29072
563.357	69.2212
563.789	69.13968
564.22	69.05437
564.652	68.74218
565.084	68.68765
565.515	68.23496
565.947	68.50842
566.378	68.43004
566.81	68.33149
567.241	67.3697
567.672	67.2546
568.104	67.09456
568.535	66.83166
568.966	66.2051
569.397	66.53601
569.828	66.62907
570.259	66.1466
570.69	65.92666
571.121	65.4258
571.552	65.12253
571.983	64.83295
572.414	64.26223
572.844	63.88067
573.275	64.0083
573.705	63.76548
574.136	63.55492
574.566	62.88971
574.997	63.09392
575.427	62.62649
575.857	62.32489
576.288	62.16053
576.718	61.80846
577.148	61.53143
577.578	61.15943
578.008	60.60474
578.438	60.48706
578.868	60.36694
579.298	60.32602
579.728	60.02568
580.157	60.118
580.587	59.82447
581.017	59.7209
581.446	59.40138
581.876	59.24401
582.305	58.57134
582.735	58.08076
583.164	57.97348
583.593	57.46127
584.023	57.67181
584.452	57.41476
584.881	57.32131
585.31	57.22718
585.739	56.76762
586.168	56.48242
586.597	56.32118
587.026	55.96906
587.455	55.57957
587.884	55.29143
588.312	55.43697
588.741	55.21625
589.17	55.16178
589.598	55.15188
590.027	55.04023
590.455	54.62694
590.884	54.82602
591.312	54.53096
591.74	54.3223
592.168	54.06901
592.597	53.75319
593.025	53.70949
593.453	53.2939
593.881	53.14126
594.309	53.32327
594.737	52.39266
595.165	52.25142
595.592	51.96306
596.02	52.00401
596.448	51.65524
596.875	51.5644
597.303	50.73071
597.73	50.97371
598.158	50.78477
598.585	50.57805
599.013	50.32451
599.44	50.47972
599.867	49.98975
600.294	50.59017
600.722	50.12948
601.149	49.91434
601.576	49.82547
602.003	49.76216
602.43	49.57562
602.856	49.2301
603.283	48.90671
603.71	49.03645
604.137	48.92037
604.563	48.71879
604.99	48.50645
605.416	48.36333
605.843	48.00029
606.269	47.91167
606.696	47.76178
607.122	47.40899
607.548	47.28114
607.975	47.37037
608.401	47.26617
608.827	47.00934
609.253	46.99525
609.679	46.98326
610.105	46.84191
610.531	46.70348
610.956	46.76054
611.382	46.69432
611.808	46.48306
612.234	46.12683
612.659	46.25056
613.085	45.97206
613.51	45.95676
613.936	45.94423
614.361	45.95326
614.786	45.76417
615.212	45.60314
615.637	45.45959
616.062	45.98147
616.487	45.38651
616.912	45.92281
617.337	46.0271
617.762	45.38964
618.187	45.23457
618.612	45.39654
619.037	44.92892
619.461	44.96882
619.886	44.92378
620.311	44.8835
620.735	45.05477
621.16	44.82055
621.584	44.50615
622.008	44.59058
622.433	44.58504
622.857	44.72199
623.281	44.6645
623.705	44.99116
624.13	45.12524
624.554	44.69713
624.978	44.41203
625.402	44.70217
625.826	44.52616
626.249	44.51586
626.673	44.86523
627.097	44.53196
627.521	44.86137
627.944	44.96853
628.368	44.6139
628.791	44.64663
629.215	44.48368
629.638	44.35829
630.061	44.69021
630.485	44.67863
630.908	44.38028
631.331	44.79262
631.754	44.60127
632.177	44.99862
632.6	44.6805
633.023	44.93531
633.446	44.96692
633.869	45.12003
634.292	44.99095
634.715	45.17229
635.137	44.98911
635.56	45.34554
635.982	45.11201
636.405	45.46684
636.827	45.52093
637.25	45.43941
637.672	45.36811
638.094	45.78085
638.517	45.39773
638.939	45.76783
639.361	45.9462
639.783	46.29151
640.205	46.20689
640.627	46.14793
641.049	46.16256
641.471	45.99849
641.893	46.17588
642.314	46.84186
642.736	46.78555
643.158	46.67936
643.579	47.19017
644.001	47.03465
644.422	47.22003
644.844	46.99218
645.265	47.65571
645.686	47.48189
646.107	47.67577
646.529	48.55896
646.95	48.49011
647.371	48.49803
647.792	48.59945
648.213	48.77874
648.634	48.56553
649.055	49.18701
649.475	49.03371
649.896	49.39963
650.317	49.9222
650.737	49.15749
651.158	49.6771
651.578	49.8891
651.999	50.07861
652.419	50.25492
652.84	50.15616
653.26	50.37412
653.68	50.69063
654.1	50.54591
654.521	51.91104
654.941	51.46168
655.361	51.20641
655.781	51.65289
656.2	51.76731
656.62	51.9233
657.04	51.36916
657.46	52.09362
657.879	52.42688
658.299	52.57029
658.719	52.64479
659.138	52.69554
659.558	53.51742
659.977	53.18637
660.396	53.71374
660.816	53.40856
661.235	53.5367
661.654	53.98677
662.073	54.05382
662.492	54.7093
662.911	54.48081
663.33	54.70992
663.749	54.9089
664.168	54.90112
664.587	55.03815
665.006	55.29963
665.424	55.36148
665.843	55.39714
666.261	55.8474
666.68	55.59403
667.098	56.07502
667.517	56.19715
667.935	55.71646
668.353	55.60595
668.772	55.31266
669.19	55.8514
669.608	55.61976
670.026	55.9607
670.444	56.6778
670.862	56.735
671.28	56.36032
671.698	56.84171
672.115	56.94217
672.533	57.19574
672.951	56.98862
673.368	56.62103
673.786	56.60397
674.203	56.87595
674.621	57.17468
675.038	57.01098
675.456	57.35049
675.873	56.92546
676.29	57.38156
676.707	56.7136
677.124	57.21997
677.541	56.80552
677.958	56.60171
678.375	56.94058
678.792	56.8997
679.209	56.87418
679.626	56.76354
680.043	57.23605
680.459	56.97325
680.876	56.72871
681.292	57.13846
681.709	56.71667
682.125	56.98881
682.542	56.45823
682.958	57.01077
683.374	56.68585
683.79	56.64719
684.207	56.25932
684.623	56.60803
685.039	56.87029
685.455	56.75711
685.871	56.02439
686.286	56.16769
686.702	56.06356
687.118	56.40185
687.534	56.48595
687.949	56.41174
688.365	56.18844
688.781	55.55525
689.196	55.67987
689.611	55.26689
690.027	54.94127
690.442	54.68277
690.857	55.58246
691.273	54.52757
691.688	55.18452
692.103	54.84652
692.518	54.25645
692.933	54.20634
693.348	54.04342
693.763	53.73538
694.177	53.62113
694.592	53.39895
695.007	52.99901
695.421	52.57772
695.836	52.70709
696.25	52.07999
696.665	52.02919
697.079	51.87044
697.494	52.00171
697.908	51.6319
698.322	51.78788
698.736	50.88408
699.151	50.88362
699.565	51.18264
699.979	50.89085
700.393	50.30481
700.806	50.33913
701.22	50.36243
701.634	49.70602
702.048	50.02259
702.461	49.62405
702.875	49.73658
703.289	49.67108
703.702	49.25886
704.116	49.0149
704.529	49.04023
704.942	48.53076
705.356	48.21578
705.769	48.09173
706.182	48.28646
706.595	47.88328
707.008	47.71103
707.421	47.15438
707.834	46.92933
708.247	46.42159
708.66	46.27829
709.072	46.25437
709.485	45.4906
709.898	45.8756
710.31	45.05021
710.723	44.97644
711.135	44.46481
711.548	44.55571
711.96	43.8214
712.373	43.81683
712.785	43.14059
713.197	43.29084
713.609	42.62148
714.021	42.41684
714.433	42.12467
714.845	42.3402
715.257	41.79015
715.669	41.85139
716.081	40.85945
716.493	41.01053
716.904	40.78479
717.316	40.56698
717.727	40.33322
718.139	39.85251
718.55	39.40879
718.962	39.61952
719.373	38.93174
719.784	39.0187
720.196	38.36405
720.607	38.46527
721.018	37.90904
721.429	37.99265
721.84	37.75306
722.251	37.38688
722.662	37.36437
723.073	36.81455
723.483	36.3395
723.894	36.36168
724.305	36.23269
724.715	35.78966
725.126	35.57711
725.536	35.1027
725.947	34.921
726.357	34.92596
726.768	34.63284
727.178	34.47403
727.588	33.88539
727.998	33.62026
728.408	33.17416
728.818	33.51613
729.228	33.43443
729.638	33.28136
730.048	33.29222
730.458	32.94801
730.868	32.67971
731.277	32.4238
731.687	32.3006
732.097	32.61783
732.506	32.09644
732.916	32.0977
733.325	31.91919
733.734	32.18151
734.144	31.54634
734.553	31.19778
734.962	30.79929
735.371	30.73973
735.78	30.33172
736.189	30.57926
736.598	29.89367
737.007	30.25935
737.416	29.38709
737.825	30.07494
738.233	29.57993
738.642	29.66863
739.051	29.27963
739.459	29.41098
739.868	29.15641
740.276	28.84322
740.684	28.68679
741.093	28.46524
741.501	28.53286
741.909	28.62069
742.317	28.42816
742.725	28.14962
743.133	28.14985
743.541	27.84173
743.949	27.9941
744.357	27.74293
744.765	27.96051
745.173	27.51516
745.58	27.83653
745.988	27.09746
746.396	27.42869
746.803	27.08099
747.211	27.01943
747.618	27.0332
748.025	26.74776
748.433	26.9479
748.84	26.48177
749.247	26.65193
749.654	26.21202
750.061	26.67584
750.468	25.71454
750.875	26.30687
751.282	25.61089
751.689	26.14982
752.096	25.61064
752.502	25.93232
752.909	25.73993
753.316	25.57754
753.722	25.83742
754.129	25.35149
754.535	25.66874
754.941	25.27649
755.348	25.64438
755.754	24.90838
756.16	25.2101
756.566	24.83942
756.972	24.91712
757.378	24.72316
757.784	24.82753
758.19	24.58874
758.596	24.33817
759.002	24.82263
759.408	24.00825
759.813	24.83006
760.219	24.06589
760.624	24.87724
761.03	24.29938
761.435	24.17403
761.841	23.81783
762.246	23.67261
762.651	23.94495
763.057	23.46614
763.462	24.71808
763.867	24.27887
764.272	24.49423
764.677	24.47583
765.082	24.54608
765.487	24.41746
765.892	24.24504
766.296	24.28974
766.701	23.58511
767.106	24.17182
767.51	23.46895
767.915	23.94603
768.319	23.69843
768.724	23.84787
769.128	23.88629
769.532	23.07926
769.936	23.90152
770.341	23.53312
770.745	23.77775
771.149	23.62714
771.553	23.2954
771.957	23.65846
772.361	23.27663
772.764	23.97837
773.168	23.20279
773.572	23.78219
773.976	23.0872
774.379	23.22559
774.783	22.98681
775.186	23.07036
775.59	23.16311
775.993	22.89811
776.396	23.46016
776.8	22.82949
777.203	22.59031
777.606	22.76167
778.009	22.71016
778.412	23.2774
778.815	22.49309
779.218	23.30877
779.621	22.81577
780.023	23.07616
780.426	22.98848
780.829	22.79129
781.231	23.13203
781.634	22.7089
782.036	23.02812
782.439	22.6328
782.841	22.54561
783.244	23.02925
783.646	22.67024
784.048	23.08782
784.45	22.36375
784.852	23.00016
785.254	22.62919
785.656	22.4793
786.058	22.67499
786.46	21.99862
786.862	22.38705
787.264	22.26385
787.665	22.36555
788.067	22.49893
788.468	22.20183
788.87	22.95411
789.271	22.50161
789.673	22.55016
790.074	23.01689
790.475	22.45111
790.877	22.98082
791.278	22.23345
791.679	22.84663
792.08	22.43723
792.481	22.70455
792.882	22.66924
793.283	22.18616
793.683	22.5384
794.084	22.26348
794.485	22.53407
794.886	22.943
795.286	22.00111
795.687	22.90814
796.087	22.31591
796.487	22.47147
796.888	22.5841
797.288	22.49441
797.688	23.07203
798.088	22.31373
798.489	22.71728
798.889	22.86427
799.289	22.35764
799.689	23.10104
800.088	22.35473
800.488	22.76074
800.888	22.85432
801.288	22.25766
801.687	23.10864
802.087	23.18593
802.486	23.08348
802.886	22.96887
803.285	22.57758
803.685	23.1993
804.084	23.01297
804.483	22.41144
804.882	23.10245
805.281	22.66827
805.68	22.9692
806.079	22.60969
806.478	22.75912
806.877	23.34931
807.276	23.07371
807.675	22.95009
808.074	22.68916
808.472	22.76138
808.871	23.13568
809.269	22.34563
809.668	22.60276
810.066	22.98793
810.465	22.5699
810.863	23.03755
811.261	22.78028
811.659	22.79049
812.057	23.32531
812.455	22.79135
812.853	23.03523
813.251	22.96727
813.649	22.34094
814.047	23.23685
814.445	22.60729
814.843	22.38495
815.24	22.94798
815.638	22.91143
816.035	23.00016
816.433	22.73693
816.83	22.53335
817.228	23.11369
817.625	22.52594
818.022	22.84733
818.419	23.05492
818.816	22.69328
819.213	22.84824
819.61	22.67131
820.007	23.22697
820.404	23.46617
820.801	22.89831
821.198	23.71013
821.595	23.55548
821.991	23.53937
822.388	24.27387
822.784	24.03279
823.181	24.47853
823.577	24.87299
823.974	24.57155
824.37	24.90055
824.766	24.75391
825.162	24.41704
825.558	24.33584
825.954	23.89739
826.35	24.01694
826.746	24.48893
827.142	24.27551
827.538	24.42526
827.934	24.86588
828.33	24.53157
828.725	24.50855
829.121	24.38893
829.516	24.0151
829.912	24.20269
830.307	23.82179
830.703	23.6956
831.098	23.59699
831.493	23.11204
831.888	23.7021
832.283	23.09012
832.678	23.28391
833.073	23.78969
833.468	23.84727
833.863	24.00348
834.258	24.06587
834.653	23.75226
835.048	24.17319
835.442	24.58995
835.837	24.11559
836.231	24.3933
836.626	23.99361
837.02	24.07317
837.415	24.251
837.809	23.87171
838.203	23.90326
838.597	23.95911
838.991	22.97132
839.385	23.25815
839.779	23.6993
840.173	23.85854
840.567	24.1212
840.961	24.40363
841.355	23.81193
841.748	24.17923
842.142	24.74731
842.536	24.24033
842.929	24.8242
843.323	24.92484
843.716	24.39662
844.109	24.84677
844.503	24.38936
844.896	24.2658
845.289	25.05764
845.682	24.78258
846.075	24.45153
846.468	25.17333
846.861	24.97179
847.254	24.63964
847.647	24.63779
848.04	24.41776
848.432	24.67654
848.825	24.9541
849.217	24.32235
849.61	25.66264
850.002	25.1613
850.395	24.47627
850.787	24.97882
851.179	24.4055
851.572	24.52416
851.964	25.50345
852.356	24.62936
852.748	24.92901
853.14	24.85495
853.532	24.62189
853.924	24.13968
854.315	25.62486
854.707	24.3051
855.099	24.55176
855.491	24.92201
855.882	24.50112
856.274	24.79517
856.665	24.77072
857.056	24.54772
857.448	24.32847
857.839	25.51443
858.23	25.27076
858.621	24.96831
859.012	25.23466
859.403	24.23838
859.794	25.29421
860.185	25.31557
860.576	24.56238
860.967	25.1463
861.358	25.01547
861.748	25.34884
862.139	25.3516
862.529	24.41956
862.92	24.5482
863.31	25.28055
863.701	25.11896
864.091	24.74011
864.481	24.84815
864.872	25.72837
865.262	24.36369
865.652	24.85456
866.042	24.30256
866.432	23.84849
866.822	25.16143
867.211	25.26068
867.601	25.40967
867.991	25.09212
868.381	25.37852
868.77	24.91587
869.16	25.11505
869.549	25.18081
869.939	23.87919
870.328	24.39099
870.717	24.77779
871.106	24.79772
871.496	24.34486
871.885	24.75648
872.274	24.73022
872.663	24.89444
873.052	25.0962
873.441	24.57596
873.829	24.5035
874.218	25.37237
874.607	24.85404
874.996	24.85759
875.384	24.91183
875.773	24.15431
876.161	24.51122
876.549	24.97922
876.938	24.1983
877.326	24.43052
877.714	24.81901
878.102	24.36939
878.491	24.07065
878.879	24.56072
879.267	23.99613
879.655	24.23937
880.042	25.03993
880.43	24.89364
880.818	24.6703
881.206	25.22447
881.593	25.25849
881.981	25.27251
882.368	25.25351
882.756	25.56817
883.143	25.00219
883.53	25.32154
883.918	25.29748
884.305	24.76722
884.692	25.18637
885.079	25.13073
885.466	24.69324
885.853	24.61593
886.24	24.86294
886.627	24.73729
887.014	24.87827
887.4	25.19447
887.787	24.87924
888.174	24.47614
888.56	25.0574
888.947	24.97159
889.333	24.25785
889.719	24.42565
890.106	24.50642
890.492	24.1164
890.878	24.07752
891.264	24.88051
891.65	24.21744
892.036	23.88987
892.422	24.32507
892.808	23.98648
893.194	23.51169
893.58	24.12977
893.965	24.59832
894.351	23.89948
894.736	24.6286
895.122	24.4835
895.507	23.76344
895.893	24.17418
896.278	24.2969
896.663	24.09846
897.049	24.46152
897.434	24.42346
897.819	24.0012
898.204	24.13842
898.589	24.65067
898.974	23.87626
899.359	24.04765
899.743	23.79385
900.128	24.52288
900.513	23.50549
900.897	23.47483
901.282	23.34931
901.667	23.3204
902.051	23.63449
902.435	23.44756
902.82	23.26241
903.204	23.02958
903.588	23.8701
903.972	23.79518
904.356	23.43855
904.74	23.75934
905.124	24.40523
905.508	24.12752
905.892	23.77266
906.276	23.75443
906.659	23.59734
907.043	24.00625
907.427	23.98141
907.81	24.9666
908.194	23.80567
908.577	23.81577
908.96	24.31137
909.344	24.14674
909.727	24.23953
910.11	24.63726
910.493	24.48299
910.876	23.42536
911.259	24.03519
911.642	24.08507
912.025	23.21063
912.408	23.58068
912.79	24.29152
913.173	23.29099
913.556	23.1006
913.938	23.55737
914.321	24.21117
914.703	23.11504
915.086	23.46889
915.468	23.81618
915.85	23.19462
916.232	23.7378
916.614	23.50725
916.996	24.18838
917.378	23.6946
917.76	23.21257
918.142	23.85347
918.524	23.80198
918.906	23.68834
919.288	23.55282
919.669	24.44666
920.051	23.37534
920.432	24.05814
920.814	24.54306
921.195	23.7564
921.577	23.2074
921.958	24.32242
922.339	23.66563
922.72	22.73239
923.101	23.83276
923.482	23.5949
923.863	23.68218
924.244	23.83512
924.625	23.23948
925.006	24.15559
925.387	23.56832
925.767	23.94368
926.148	23.80787
926.528	23.23668
926.909	22.97631
927.289	23.64077
927.67	23.67015
928.05	23.02711
928.43	22.70596
928.81	24.20805
929.191	23.33018
929.571	22.85381
929.951	24.08978
930.331	23.56786
930.71	23.24553
931.09	24.02312
931.47	23.57156
931.85	23.36162
932.229	22.12211
932.609	23.03302
932.988	23.31967
933.368	23.59729
933.747	22.56619
934.127	23.88058
934.506	23.52719
934.885	22.49906
935.264	22.69104
935.643	22.72247
936.022	23.17946
936.401	22.94527
936.78	22.50734
937.159	24.48218
937.538	21.17784
937.916	23.1861
938.295	23.70569
938.674	21.71455
939.052	23.32827
939.431	24.38566
939.809	23.15263
940.187	22.48659
940.566	22.79873
940.944	23.18909
941.322	22.83422
941.7	22.13532
942.078	21.50359
942.456	22.30528
942.834	24.47015
943.212	21.8237
943.59	21.86449
943.968	21.62482
944.345	21.51966
944.723	22.27886
945.1	22.89296
945.478	22.13751
945.855	22.50282
946.233	21.95803
946.61	22.19679
946.987	21.65129
947.365	21.78635
947.742	20.74618
948.119	22.16024
948.496	21.78298
948.873	20.71592
949.25	22.31001
949.626	21.79024
950.003	19.88322
950.38	21.4435
950.756	20.95687
951.133	21.63185
951.51	20.37368
951.886	20.68627
952.262	22.44486
952.639	21.55045
953.015	19.1945
953.391	20.50345
953.767	20.95962
954.143	20.33703
954.519	19.4352
954.895	21.20067
955.271	20.32798
955.647	17.10195
956.023	21.16165
956.399	21.87741
956.774	21.71897
957.15	18.72504
957.525	21.05577
957.901	20.096
958.276	21.37918
958.652	20.91163
959.027	20.33104
959.402	18.72714
959.777	19.20542
960.152	20.40455
960.527	19.80959
960.902	20.74586
961.277	20.83757
961.652	19.20626
962.027	21.06543
962.402	21.49784
962.776	19.84876
963.151	18.92687
963.525	20.3241
963.9	20.988
964.274	21.16194
964.649	19.31181
965.023	18.27654
965.397	21.03049
965.771	19.78053
966.146	18.94452
966.52	20.35252
966.894	20.60586
967.268	20.3544
967.641	19.57491
968.015	19.18289
968.389	19.2181
968.763	19.77659
969.136	20.32411
969.51	20.49428
969.883	19.05849
970.257	20.34531
970.63	19.77666
971.003	18.34455
971.377	20.18347
971.75	18.93707
972.123	21.47639
972.496	19.938
972.869	18.86883
973.242	22.80303
973.615	19.8284
973.988	21.19988
974.36	20.07313
974.733	20.49844
975.106	19.2822
975.478	20.5085
975.851	19.24031
976.223	18.84818
976.596	17.96356
976.968	21.08753
977.34	19.12603
977.712	18.39711
978.085	19.25713
978.457	19.18007
978.829	20.32737
979.201	18.92365
979.573	20.08644
979.944	19.8055
980.316	19.33781
980.688	19.52387
981.059	21.57965
981.431	19.03349
981.803	20.47856
982.174	20.11595
982.545	18.84025
982.917	21.25356
983.288	18.5869
983.659	19.79149
984.03	20.37809
984.401	20.65601
984.772	20.54591
985.143	18.23145
985.514	20.08118
985.885	19.78769
986.256	20.68724
986.627	18.9872
986.997	20.76007
987.368	19.30517
987.738	18.39545
988.109	19.69183
988.479	19.20321
988.85	18.71375
989.22	19.3035
989.59	19.17363
989.96	18.27918
990.33	18.54187
990.7	18.72613
991.07	19.23493
991.44	17.53389
991.81	17.54652
992.18	18.75929
992.549	19.84102
992.919	20.1933
993.289	18.84369
993.658	19.12741
994.028	19.86963
994.397	19.34044
994.766	19.57913
995.136	19.73983
995.505	18.27045
995.874	21.83225
996.243	17.17949
996.612	17.00512
996.981	19.58239
997.35	21.93309
997.719	17.32942
998.088	20.03189
998.456	21.08748
998.825	24.19067
999.194	20.16498
999.562	19.05946
999.931	21.68311
1000.299	18.50835
1000.667	19.87872
1001.036	20.25001
1001.404	17.64541
1001.772	21.63586
1002.14	19.18701
1002.508	17.40292
1002.876	18.1378
1003.244	20.29278
1003.612	17.23597
1003.98	19.31716
1004.347	19.24237
1004.715	15.07597
1005.083	19.38002
1005.45	19.46616
1005.818	19.26452
1006.185	18.57558
1006.552	17.12813
1006.92	21.99991
1007.287	19.33557
1007.654	12.79612
1008.021	16.6667
1008.388	19.28154
1008.755	18.7661
1009.122	21.74738
1009.489	17.87457
1009.856	19.11753
1010.222	16.3356
1010.589	18.82788
1010.956	18.82083
1011.322	15.13668
1011.689	20.31357
1012.055	17.42159
1012.421	17.31816
1012.788	17.24098
1013.154	18.37259
1013.52	15.69156
1013.886	19.0644
1014.252	19.44112
1014.618	18.35316
1014.984	17.85021
1015.35	19.86292
1015.716	15.59948
1016.081	17.38778
1016.447	21.62002
1016.813	19.10168
1017.178	16.28779
1017.544	22.0269
1017.909	21.89409
1018.274	16.80196
1018.64	20.77665
1019.005	19.10573
1019.37	12.60906
1019.735	17.96761
1020.1	12.25975
1020.465	16.3556
1020.83	18.795
1021.195	16.08298
1021.56	18.53221
1021.924	17.73218
1022.289	15.55167
1022.654	17.37384
1023.018	19.43002
1023.383	15.75633
1023.747	22.98349
1024.111	10.91849
1024.476	23.37241
1024.84	16.23506
1025.204	22.18341
1025.568	9.66246
1025.932	12.70201
1026.296	12.80425
1026.66	14.24485
1027.024	12.25594
1027.387	17.3406
1027.751	19.03364
1028.115	28.02201
1028.478	20.84743
1028.842	21.15975
1029.205	15.254
1029.569	16.763
1029.932	19.56716
1030.295	12.40156
1030.659	10.79649
1031.022	18.67287
1031.385	21.19803
1031.748	19.04593
1032.111	12.89365
1032.474	14.05337
1032.836	16.44193
1033.199	15.43521
1033.562	15.43767
1033.924	11.63256
1034.287	23.96553
1034.65	19.67321
1035.012	2.68626
1035.374	23.68074
1035.737	7.22087
1036.099	32.54985
1036.461	13.49029
1036.823	6.33601
1037.185	15.83006
1037.547	18.80277
1037.909	1.868
1038.271	8.54935
1038.633	5.13418
1038.995	8.43263
1039.356	17.20123
1039.718	3.43453
1040.08	15.96616
1040.441	12.40531
1040.803	0.34945
1041.164	1.45377
1041.525	20.13237
1041.886	-1.49194
1042.248	14.65509
1042.609	12.31296
1042.97	19.78604
1043.331	10.62559
1043.692	12.49499
1044.053	10.87174
1044.413	-1.6121
1044.774	20.51375
1045.135	11.15424
1045.495	13.59422
1045.856	17.20325
1046.216	-0.48289
1046.577	10.35629
1046.937	0
1047.298	18.77293
