Data from 1017water_Reflection__9__21-01-10-731.txt Node

Date: Fri Oct 17 21:01:10 AST 2025
User: lin
Spectrometer: SR600411
Trigger mode: 0
Integration Time (sec): 5.846600E-2
Scans to average: 5
Nonlinearity correction enabled: true
Boxcar width: 0
Storing dark spectrum: false
XAxis mode: Wavelengths
Number of Pixels in Spectrum: 2048
>>>>>Begin Spectral Data<<<<<
187.982	61.47263
188.456	43.54462
188.93	37.28467
189.403	50.67533
189.877	49.35148
190.351	47.49966
190.825	39.20367
191.298	47.3773
191.772	41.11716
192.246	34.44043
192.719	48.06665
193.193	30.12147
193.666	50.82147
194.139	50.63225
194.613	52.21381
195.086	59.51755
195.559	53.41136
196.033	45.9877
196.506	50.74598
196.979	52.16418
197.452	59.08147
197.925	55.98177
198.398	52.00071
198.871	65.44695
199.344	52.85645
199.816	52.20891
200.289	60.23973
200.762	41.38985
201.235	49.98794
201.707	60.36734
202.18	16.01729
202.652	21.50589
203.125	41.35025
203.597	44.69053
204.07	29.04299
204.542	19.01613
205.014	42.98513
205.486	19.76205
205.959	63.89762
206.431	40.87291
206.903	63.05009
207.375	28.67097
207.847	33.08228
208.319	27.61715
208.791	43.11398
209.263	35.87191
209.734	46.03634
210.206	17.26962
210.678	41.20912
211.15	-3.17379
211.621	12.32565
212.093	-4.1312
212.564	44.26842
213.036	54.86172
213.507	15.5367
213.979	46.58658
214.45	15.0648
214.921	-7.99829
215.392	16.39014
215.864	32.47356
216.335	35.55148
216.806	24.50607
217.277	17.42809
217.748	21.70541
218.219	63.80473
218.69	37.27029
219.161	-36.35717
219.631	23.07327
220.102	40.30393
220.573	32.80692
221.043	-41.01672
221.514	24.18905
221.985	17.16893
222.455	9.6136
222.926	8.18018
223.396	31.24456
223.866	12.6295
224.337	33.03844
224.807	62.34899
225.277	-18.30682
225.747	22.21822
226.217	29.02594
226.687	24.99659
227.157	39.42031
227.627	-8.97285
228.097	25.76071
228.567	23.88973
229.037	26.71249
229.507	40.86936
229.977	24.17253
230.446	-8.21789
230.916	5.31821
231.386	27.36469
231.855	34.9937
232.325	54.61601
232.794	44.06205
233.263	28.78252
233.733	57.13777
234.202	26.27212
234.671	23.47417
235.14	24.10837
235.61	34.9946
236.079	18.08235
236.548	23.63244
237.017	37.83267
237.486	15.78648
237.955	22.67705
238.424	2.2468
238.892	38.83011
239.361	19.99573
239.83	52.43498
240.299	-9.99761
240.767	11.10988
241.236	11.10953
241.704	-13.2624
242.173	33.3299
242.641	21.56521
243.109	56.70991
243.578	39.05648
244.046	-30.76406
244.514	29.19892
244.982	26.9961
245.451	8.6007
245.919	19.99699
246.387	26.11428
246.855	34.68729
247.323	46.66224
247.791	-17.2379
248.258	47.46986
248.726	26.96283
249.194	38.36807
249.662	42.16467
250.129	-12.60949
250.597	12.61019
251.064	31.64873
251.532	36.16592
251.999	-39.76305
252.467	83.50252
252.934	23.25126
253.401	38.77092
253.869	18.1789
254.336	29.06626
254.803	29.50319
255.27	33.68001
255.737	65.73593
256.204	11.2662
256.671	32.66887
257.138	53.63095
257.605	15.78647
258.072	34.60841
258.539	-17.71826
259.005	33.32779
259.472	30.71251
259.939	27.15732
260.405	-2.1974
260.872	52.85369
261.338	25.2131
261.805	35.60007
262.271	28.66554
262.737	11.82604
263.203	31.5757
263.67	18.34539
264.136	28.46164
264.602	49.40756
265.068	17.43941
265.534	35.58787
266	16.06844
266.466	-5.26233
266.932	31.14236
267.398	37.64311
267.864	-21.23319
268.329	45.03175
268.795	-36.10412
269.261	26.20965
269.726	9.89921
270.192	23.59233
270.657	54.66299
271.123	24.52442
271.588	32.69004
272.053	36.29011
272.519	45.45131
272.984	23.40092
273.449	3.06065
273.914	11.10953
274.379	-12.49799
274.844	33.6315
275.309	35.28951
275.774	50.40724
276.239	-21.2718
276.704	55.55204
277.169	-7.22764
277.634	44.89316
278.098	-4.54483
278.563	53.42106
279.028	17.38934
279.492	21.3558
279.957	22.8547
280.421	48.27013
280.886	17.20168
281.35	22.61614
281.814	14.95058
282.279	-29.72409
282.743	43.99512
283.207	31.24592
283.671	15.85149
284.135	18.62439
284.599	61.42529
285.063	58.15855
285.527	25.97942
285.991	4.47704
286.455	16.48104
286.919	51.89483
287.382	38.45667
287.846	33.03844
288.31	39.35727
288.773	9.92135
289.237	81.35239
289.7	9.0204
290.164	-36.4792
290.627	30.10365
291.09	67.81233
291.554	-111.44698
292.017	30.09281
292.48	-19.71499
292.943	24.55931
293.406	20.55729
293.869	34.087
294.332	1.28186
294.795	28.86204
295.258	4.76115
295.721	37.99534
296.184	3.63598
296.646	36.42216
297.109	49.99575
297.572	38.19809
298.034	22.65181
298.497	30.8471
298.959	21.27348
299.422	23.28509
299.884	31.3998
300.346	48.77644
300.809	21.49176
301.271	45.87818
301.733	-2.56349
302.195	-26.08397
302.657	5.99888
303.119	71.08096
303.581	-36.70102
304.043	47.56773
304.505	18.38822
304.967	-5.71345
305.429	55.09724
305.891	-16.6632
306.352	30.22897
306.814	35.20806
307.275	-5.3753
307.737	34.33902
308.198	15.21504
308.66	-32.90456
309.121	47.36374
309.583	26.31287
310.044	33.84039
310.505	41.75386
310.966	19.35292
311.428	40.47219
311.889	38.59114
312.35	16.32389
312.811	32.5804
313.272	-18.74578
313.733	58.99521
314.193	28.06669
314.654	37.21995
315.115	36.77761
315.576	32.25405
316.036	31.35091
316.497	57.28702
316.957	-3.539
317.418	62.37155
317.878	-22.49564
318.339	71.42631
318.799	28.03311
319.259	43.89845
319.72	11.2342
320.18	-11.6997
320.64	20.99672
321.1	-17.94382
321.56	4.42383
322.02	40.42105
322.48	20.25064
322.94	12.3787
323.4	48.93152
323.86	-21.12317
324.319	0
324.779	63.85163
325.239	41.81289
325.698	65.65215
326.158	56.03952
326.617	26.50283
327.077	36.78758
327.536	9.87512
327.996	2.04043
328.455	22.05651
328.914	-1.33313
329.373	5.45398
329.832	30.60812
330.292	29.1107
330.751	50.93816
331.21	10.16843
331.668	25.61528
332.127	19.8309
332.586	40.64454
333.045	-16.80977
333.504	22.22038
333.962	7.14139
334.421	76.62065
334.88	4.22478
335.338	-20.68679
335.797	-2.17371
336.255	-16.4527
336.714	37.89745
337.172	12.22031
337.63	17.64461
338.088	32.10539
338.547	58.48548
339.005	14.73448
339.463	74.99689
339.921	-38.17609
340.379	22.46884
340.837	-33.32674
341.295	12.35764
341.753	3.12443
342.21	38.45788
342.668	4.58621
343.126	24.50607
343.584	9.37339
344.041	8.24597
344.499	-7.5254
344.956	9.19397
345.414	18.17955
345.871	29.90968
346.328	29.16373
346.786	13.79038
347.243	-16.24701
347.7	-34.99253
348.157	17.85471
348.614	30.62596
349.071	-19.9981
349.528	27.26927
349.985	49.99318
350.442	1.19028
350.899	52.26839
351.356	53.3289
351.812	-22.21739
352.269	17.07087
352.726	24.03471
353.182	-2.94077
353.639	48.05565
354.095	19.0984
354.552	29.6988
355.008	10.44652
355.465	27.11404
355.921	1.29851
356.377	43.67394
356.833	5.65926
357.289	38.9775
357.745	16.81947
358.201	33.65891
358.657	32.13681
359.113	4.38502
359.569	34.30046
360.025	24.34364
360.481	40.10812
360.937	23.89365
361.392	56.38698
361.848	26.65856
362.303	38.24808
362.759	42.67105
363.214	33.32359
363.67	33.48124
364.125	44.18552
364.581	27.12704
365.036	42.46891
365.491	51.98647
365.946	41.43274
366.401	44.58969
366.856	32.56964
367.311	48.85886
367.766	48.71156
368.221	43.25618
368.676	53.42553
369.131	44.84909
369.586	49.97313
370.041	50.23562
370.495	47.01627
370.95	48.70396
371.404	47.19954
371.859	51.96316
372.313	45.72908
372.768	46.49299
373.222	52.00221
373.676	52.79146
374.131	52.57034
374.585	53.39383
375.039	47.64684
375.493	55.13929
375.947	54.90059
376.401	52.26532
376.855	52.71187
377.309	53.69086
377.763	51.6146
378.217	53.74538
378.67	54.63462
379.124	52.37887
379.578	52.00168
380.031	53.81651
380.485	52.28215
380.938	52.16321
381.392	51.29678
381.845	53.83865
382.299	52.10456
382.752	51.42159
383.205	52.91022
383.658	52.65331
384.111	51.95639
384.564	51.85778
385.018	53.37269
385.471	51.58057
385.923	53.94781
386.376	52.85542
386.829	52.28917
387.282	52.98406
387.735	53.62312
388.187	53.74123
388.64	52.84606
389.093	52.80308
389.545	52.17256
389.998	53.24516
390.45	53.78129
390.902	53.20464
391.355	53.53524
391.807	54.13181
392.259	54.29633
392.711	53.22049
393.163	53.66032
393.615	54.59137
394.068	54.53901
394.519	53.4706
394.971	53.69321
395.423	53.17552
395.875	54.16486
396.327	54.18782
396.779	53.6659
397.23	53.95422
397.682	53.16447
398.133	54.18375
398.585	53.58018
399.036	53.89226
399.488	53.81668
399.939	53.58983
400.39	53.10727
400.842	53.59875
401.293	53.39987
401.744	53.5358
402.195	52.98434
402.646	53.69046
403.097	52.4126
403.548	52.74794
403.999	52.61523
404.45	52.84791
404.9	52.72862
405.351	52.71368
405.802	52.49356
406.253	52.20884
406.703	52.90493
407.154	52.34659
407.604	53.17438
408.055	52.14449
408.505	52.25025
408.955	51.28033
409.406	51.06469
409.856	52.18126
410.306	51.46491
410.756	51.55587
411.206	50.83267
411.656	50.8143
412.106	50.92504
412.556	50.55886
413.006	50.28251
413.456	50.05161
413.905	49.87395
414.355	49.58729
414.805	50.11994
415.254	49.95978
415.704	49.88677
416.153	50.18981
416.603	49.92243
417.052	49.13173
417.502	49.13849
417.951	49.50211
418.4	49.27974
418.849	49.33027
419.298	49.03144
419.748	48.71556
420.197	48.77636
420.646	48.83809
421.094	48.27561
421.543	48.72088
421.992	48.07755
422.441	47.95465
422.89	47.43272
423.338	47.81473
423.787	47.47658
424.236	47.32688
424.684	47.08988
425.133	47.1746
425.581	46.74283
426.029	46.70418
426.478	46.59499
426.926	46.17611
427.374	46.66642
427.822	46.96987
428.27	46.18294
428.718	46.54438
429.166	46.3493
429.614	46.18549
430.062	46.36629
430.51	46.19571
430.958	46.03693
431.406	45.91922
431.853	46.01581
432.301	45.87475
432.749	45.32794
433.196	45.30544
433.644	45.23921
434.091	44.82704
434.538	45.65051
434.986	44.80347
435.433	44.7698
435.88	45.06911
436.327	44.50263
436.775	44.84716
437.222	44.37647
437.669	44.62896
438.116	44.1577
438.563	44.81203
439.009	44.15013
439.456	44.62627
439.903	45.08501
440.35	44.55928
440.796	44.66112
441.243	44.51003
441.689	44.36884
442.136	44.71316
442.582	44.28828
443.029	44.82496
443.475	43.928
443.921	44.808
444.368	44.32651
444.814	44.22865
445.26	44.04473
445.706	44.15359
446.152	44.22868
446.598	44.55365
447.044	44.50214
447.49	44.54968
447.936	44.15939
448.381	44.30473
448.827	44.61165
449.273	44.73707
449.718	44.08591
450.164	44.15494
450.61	44.47981
451.055	44.25694
451.5	44.28714
451.946	44.55304
452.391	44.25371
452.836	44.32052
453.282	44.59712
453.727	44.1065
454.172	44.74297
454.617	44.56556
455.062	44.58251
455.507	44.58678
455.952	44.13609
456.396	44.49879
456.841	44.83418
457.286	44.66488
457.731	44.76507
458.175	44.91355
458.62	44.75286
459.064	44.54023
459.509	44.84533
459.953	45.06843
460.398	44.78772
460.842	44.7384
461.286	44.80794
461.73	45.08378
462.174	45.03141
462.619	44.81009
463.063	45.11295
463.507	45.23
463.951	45.48491
464.394	45.83799
464.838	45.55237
465.282	45.95559
465.726	45.49584
466.17	45.80452
466.613	46.03006
467.057	46.45096
467.5	46.68349
467.944	46.73164
468.387	46.69946
468.831	46.6648
469.274	47.29776
469.717	47.26907
470.16	47.14699
470.603	47.42981
471.047	47.4012
471.49	47.54068
471.933	48.09622
472.376	48.21479
472.818	48.7553
473.261	48.52428
473.704	48.49625
474.147	49.00957
474.59	48.58046
475.032	49.1365
475.475	49.34875
475.917	49.32064
476.36	49.76462
476.802	49.80629
477.245	50.22029
477.687	49.77027
478.129	50.24886
478.571	50.47835
479.013	50.89608
479.456	50.71343
479.898	50.97415
480.34	51.37338
480.782	51.79859
481.224	51.65828
481.665	51.64537
482.107	52.31476
482.549	52.61556
482.991	52.59193
483.432	52.62354
483.874	52.81479
484.315	52.76285
484.757	52.66903
485.198	53.17867
485.64	53.22755
486.081	53.70832
486.522	53.51967
486.963	53.58579
487.405	53.52019
487.846	53.7988
488.287	53.80735
488.728	53.94123
489.169	54.15868
489.61	54.12135
490.05	53.85143
490.491	54.34195
490.932	54.75542
491.373	54.70273
491.813	54.5655
492.254	54.43834
492.694	54.58194
493.135	55.35418
493.575	54.69581
494.016	55.24176
494.456	54.95682
494.896	55.09393
495.336	55.65369
495.777	55.11213
496.217	55.69383
496.657	55.48157
497.097	56.11023
497.537	55.5124
497.977	56.3427
498.416	55.99275
498.856	56.51733
499.296	56.7017
499.736	56.68543
500.175	56.39221
500.615	56.49576
501.054	56.78169
501.494	56.83828
501.933	56.84564
502.373	57.1091
502.812	57.91344
503.251	57.34284
503.69	57.95404
504.129	58.08713
504.569	57.72295
505.008	57.93092
505.447	58.37075
505.886	58.67466
506.324	58.63213
506.763	59.07149
507.202	58.9907
507.641	59.33006
508.079	59.58699
508.518	60.28746
508.957	59.96152
509.395	60.63466
509.834	60.91764
510.272	60.87567
510.71	61.28576
511.149	61.44353
511.587	61.40205
512.025	60.95488
512.463	61.71074
512.901	61.84379
513.339	61.99621
513.777	62.77086
514.215	62.52155
514.653	62.98362
515.091	63.20004
515.529	63.74213
515.966	64.11826
516.404	63.36521
516.842	64.11633
517.279	64.31236
517.717	64.55169
518.154	64.83318
518.592	65.22233
519.029	65.65046
519.466	65.77006
519.904	65.57424
520.341	66.27362
520.778	66.41064
521.215	66.78383
521.652	67.26298
522.089	67.33529
522.526	67.54159
522.963	67.23557
523.399	67.59789
523.836	67.66751
524.273	68.00929
524.71	68.40481
525.146	68.83876
525.583	69.40502
526.019	69.32179
526.456	69.12683
526.892	69.87441
527.328	69.76777
527.765	69.74402
528.201	70.595
528.637	70.43832
529.073	71.24249
529.509	71.37997
529.945	70.79525
530.381	71.50918
530.817	71.40998
531.253	71.67147
531.689	72.05807
532.124	72.1564
532.56	72.57677
532.996	72.84238
533.431	72.71602
533.867	73.47929
534.302	73.66291
534.738	73.2903
535.173	73.43361
535.608	73.22175
536.044	74.27596
536.479	74.63682
536.914	74.29772
537.349	74.30335
537.784	74.27951
538.219	74.07528
538.654	74.93167
539.089	74.63678
539.524	74.67554
539.959	74.80706
540.393	74.98503
540.828	75.19787
541.263	75.61302
541.697	75.30309
542.132	75.20966
542.566	75.59317
543.001	75.43929
543.435	75.65471
543.869	75.74789
544.303	75.25794
544.738	75.1767
545.172	75.73116
545.606	75.1399
546.04	75.67178
546.474	75.64129
546.908	75.05922
547.342	75.39327
547.775	74.91437
548.209	75.14676
548.643	74.71894
549.077	75.22863
549.51	74.69946
549.944	74.12134
550.377	75.11872
550.811	74.43418
551.244	74.24195
551.677	74.30349
552.111	73.7426
552.544	73.82329
552.977	73.62886
553.41	73.4139
553.843	73.98959
554.276	73.15702
554.709	72.94606
555.142	73.70739
555.575	73.39215
556.008	73.31421
556.44	72.49231
556.873	72.01024
557.306	72.29806
557.738	72.39974
558.171	71.61561
558.603	72.18936
559.036	71.39977
559.468	71.18327
559.9	71.03553
560.333	70.27781
560.765	70.41051
561.197	70.29778
561.629	70.11629
562.061	69.74306
562.493	69.71746
562.925	69.60029
563.357	69.3475
563.789	69.12299
564.22	69.15879
564.652	69.41198
565.084	68.51861
565.515	68.56263
565.947	68.50356
566.378	69.01442
566.81	68.21444
567.241	68.0697
567.672	67.96686
568.104	67.89297
568.535	67.67126
568.966	66.80141
569.397	66.25449
569.828	66.72566
570.259	66.53611
570.69	66.3063
571.121	65.68598
571.552	65.48809
571.983	65.24748
572.414	65.12999
572.844	64.44677
573.275	65.09944
573.705	65.03664
574.136	64.34767
574.566	63.87995
574.997	63.92549
575.427	63.58957
575.857	63.12274
576.288	62.96694
576.718	62.83765
577.148	63.08206
577.578	62.91821
578.008	62.27557
578.438	62.10033
578.868	61.78147
579.298	62.19745
579.728	61.47347
580.157	61.76904
580.587	61.10079
581.017	61.32969
581.446	60.95988
581.876	61.27352
582.305	60.37225
582.735	60.32173
583.164	60.02774
583.593	59.41902
584.023	59.57823
584.452	59.13658
584.881	59.51184
585.31	59.5109
585.739	59.11193
586.168	58.58267
586.597	59.09559
587.026	58.51044
587.455	58.38801
587.884	58.23006
588.312	57.89445
588.741	57.5093
589.17	57.59183
589.598	56.97541
590.027	57.17169
590.455	57.04234
590.884	57.36007
591.312	56.66072
591.74	56.29402
592.168	56.48482
592.597	56.22624
593.025	55.9223
593.453	55.72099
593.881	55.57571
594.309	55.25971
594.737	54.81099
595.165	55.04861
595.592	54.60529
596.02	54.09361
596.448	54.28339
596.875	54.31576
597.303	54.05683
597.73	53.63201
598.158	53.75052
598.585	53.36714
599.013	53.34936
599.44	52.93304
599.867	53.3748
600.294	52.97961
600.722	52.95297
601.149	52.61906
601.576	52.64463
602.003	52.62388
602.43	52.39086
602.856	52.42048
603.283	51.75183
603.71	51.67835
604.137	51.66502
604.563	51.51117
604.99	51.66767
605.416	51.34836
605.843	50.95985
606.269	50.55641
606.696	50.88352
607.122	50.26653
607.548	50.09244
607.975	50.38372
608.401	50.21844
608.827	49.84714
609.253	49.63426
609.679	50.01881
610.105	49.62778
610.531	49.28804
610.956	49.29834
611.382	49.38143
611.808	49.14519
612.234	49.14837
612.659	48.61349
613.085	48.76701
613.51	48.72627
613.936	48.49679
614.361	48.55163
614.786	48.7136
615.212	48.05086
615.637	48.26306
616.062	48.21943
616.487	48.03189
616.912	48.59392
617.337	48.44804
617.762	48.03444
618.187	48.04746
618.612	47.86127
619.037	47.73958
619.461	47.89908
619.886	47.62045
620.311	47.40233
620.735	47.30085
621.16	47.53898
621.584	47.27735
622.008	46.96291
622.433	47.27258
622.857	47.17217
623.281	46.96176
623.705	47.39172
624.13	47.12556
624.554	47.03788
624.978	46.7653
625.402	47.09025
625.826	47.08083
626.249	46.91325
626.673	46.75521
627.097	47.079
627.521	47.13704
627.944	47.02458
628.368	46.98204
628.791	47.06087
629.215	46.62922
629.638	47.02085
630.061	46.85297
630.485	47.02626
630.908	47.13339
631.331	46.97443
631.754	46.69519
632.177	47.08211
632.6	46.74263
633.023	46.79391
633.446	46.91958
633.869	47.0306
634.292	46.83603
634.715	47.1416
635.137	47.06912
635.56	47.25622
635.982	47.42066
636.405	47.2037
636.827	47.17144
637.25	47.27342
637.672	47.47311
638.094	47.78106
638.517	47.7858
638.939	47.91503
639.361	47.91488
639.783	47.88707
640.205	47.49033
640.627	47.68555
641.049	47.69231
641.471	47.71683
641.893	48.01702
642.314	48.36883
642.736	48.38561
643.158	48.19124
643.579	48.09007
644.001	48.42845
644.422	48.0755
644.844	48.57784
645.265	48.2809
645.686	48.48717
646.107	49.07176
646.529	49.06228
646.95	49.39523
647.371	49.83325
647.792	49.44258
648.213	50.07676
648.634	49.94909
649.055	50.10858
649.475	50.24529
649.896	50.32354
650.317	50.74089
650.737	50.43387
651.158	50.45272
651.578	50.53886
651.999	51.27502
652.419	50.76843
652.84	50.97628
653.26	51.56698
653.68	51.09999
654.1	51.19057
654.521	51.98535
654.941	51.75368
655.361	51.85168
655.781	52.13703
656.2	51.90868
656.62	52.41499
657.04	52.12908
657.46	52.1487
657.879	52.48032
658.299	52.73166
658.719	53.27168
659.138	52.71725
659.558	53.49796
659.977	53.30324
660.396	53.31723
660.816	53.1801
661.235	53.78774
661.654	53.91789
662.073	53.69668
662.492	54.05218
662.911	54.57695
663.33	54.20962
663.749	54.2261
664.168	54.56325
664.587	54.63435
665.006	54.67486
665.424	55.14016
665.843	54.33838
666.261	55.05754
666.68	54.96908
667.098	55.09104
667.517	55.20599
667.935	54.9711
668.353	54.53741
668.772	54.6874
669.19	54.70369
669.608	55.18392
670.026	55.12208
670.444	55.79704
670.862	55.4666
671.28	55.57396
671.698	55.3091
672.115	55.32762
672.533	56.34405
672.951	55.80983
673.368	55.86147
673.786	55.80242
674.203	55.3598
674.621	55.89157
675.038	55.83728
675.456	55.98764
675.873	55.72349
676.29	55.70241
676.707	55.99962
677.124	55.85888
677.541	55.8876
677.958	55.11835
678.375	55.93625
678.792	55.61425
679.209	55.3444
679.626	56.00357
680.043	55.82429
680.459	55.89103
680.876	55.87437
681.292	55.81709
681.709	55.87829
682.125	55.32119
682.542	55.49091
682.958	55.00004
683.374	55.43277
683.79	55.11473
684.207	55.19591
684.623	55.28316
685.039	54.96719
685.455	55.51454
685.871	54.30206
686.286	54.97523
686.702	54.35755
687.118	54.85258
687.534	54.35498
687.949	54.05705
688.365	54.502
688.781	53.94581
689.196	54.32392
689.611	53.19438
690.027	53.43076
690.442	53.04182
690.857	53.65135
691.273	53.12216
691.688	53.36272
692.103	53.09894
692.518	52.04885
692.933	52.87862
693.348	51.89856
693.763	52.35568
694.177	51.83432
694.592	51.29028
695.007	51.22705
695.421	50.947
695.836	50.56741
696.25	50.44877
696.665	50.3693
697.079	50.21164
697.494	50.66641
697.908	49.59144
698.322	50.36763
698.736	49.36625
699.151	49.28319
699.565	49.2903
699.979	49.62573
700.393	49.07136
700.806	48.76902
701.22	48.94682
701.634	48.26064
702.048	48.512
702.461	48.03369
702.875	48.17679
703.289	47.94504
703.702	47.92875
704.116	47.46509
704.529	47.90508
704.942	46.93071
705.356	47.38115
705.769	46.52087
706.182	46.91596
706.595	46.31101
707.008	46.18639
707.421	46.15625
707.834	45.24798
708.247	45.57825
708.66	44.77408
709.072	45.14337
709.485	44.36903
709.898	44.69662
710.31	43.46048
710.723	43.98285
711.135	43.42708
711.548	43.59174
711.96	42.68792
712.373	43.10962
712.785	42.03501
713.197	42.13828
713.609	41.70725
714.021	41.30539
714.433	41.38058
714.845	40.99951
715.257	40.95788
715.669	40.78544
716.081	40.1841
716.493	39.89878
716.904	39.67056
717.316	39.49376
717.727	39.66701
718.139	39.22966
718.55	38.97736
718.962	38.63801
719.373	38.92226
719.784	38.17172
720.196	37.9501
720.607	37.78509
721.018	37.83541
721.429	37.17878
721.84	37.46674
722.251	36.66591
722.662	36.9396
723.073	36.21677
723.483	36.29943
723.894	35.63749
724.305	36.09559
724.715	35.42632
725.126	35.21883
725.536	35.0897
725.947	34.70941
726.357	34.53407
726.768	34.56964
727.178	33.79559
727.588	34.08837
727.998	33.38731
728.408	33.3826
728.818	33.43871
729.228	33.49303
729.638	32.9271
730.048	32.82983
730.458	32.63795
730.868	32.55886
731.277	32.17267
731.687	32.32496
732.097	32.33246
732.506	32.04096
732.916	31.44342
733.325	31.53844
733.734	31.67906
734.144	31.25189
734.553	30.99899
734.962	30.3319
735.371	30.62394
735.78	30.20243
736.189	30.37402
736.598	29.73074
737.007	30.05468
737.416	29.29741
737.825	30.15274
738.233	29.18536
738.642	29.60021
739.051	28.937
739.459	29.38439
739.868	29.05694
740.276	29.08636
740.684	28.77635
741.093	29.01053
741.501	28.42999
741.909	28.93565
742.317	28.18809
742.725	28.39608
743.133	28.22658
743.541	27.70353
743.949	27.90193
744.357	27.65532
744.765	28.05575
745.173	27.13349
745.58	28.06684
745.988	27.24178
746.396	27.58863
746.803	27.32242
747.211	27.68061
747.618	27.14281
748.025	27.00486
748.433	26.75381
748.84	26.82566
749.247	26.50723
749.654	26.53761
750.061	26.47339
750.468	25.99157
750.875	26.12341
751.282	25.4947
751.689	26.29411
752.096	25.76435
752.502	26.24074
752.909	25.40529
753.316	25.46499
753.722	25.63867
754.129	25.67178
754.535	25.83361
754.941	25.45818
755.348	25.64027
755.754	24.98423
756.16	25.44707
756.566	24.40904
756.972	25.1391
757.378	24.6199
757.784	24.92874
758.19	24.82695
758.596	24.60929
759.002	24.78588
759.408	24.23255
759.813	24.82052
760.219	24.1381
760.624	24.63974
761.03	24.27222
761.435	24.61866
761.841	23.83324
762.246	24.04198
762.651	23.91445
763.057	24.00985
763.462	24.80301
763.867	24.46729
764.272	24.99752
764.677	24.58349
765.082	24.71493
765.487	24.2815
765.892	24.45953
766.296	24.36036
766.701	23.93247
767.106	24.43832
767.51	23.92245
767.915	24.3938
768.319	23.75572
768.724	24.11854
769.128	23.90012
769.532	23.40559
769.936	24.15286
770.341	23.30276
770.745	23.98746
771.149	23.42304
771.553	23.8805
771.957	23.67314
772.361	23.85413
772.764	24.04336
773.168	23.72993
773.572	23.96572
773.976	23.22347
774.379	23.75175
774.783	23.24803
775.186	23.14957
775.59	23.54026
775.993	23.28254
776.396	23.54097
776.8	22.84815
777.203	22.98541
777.606	22.88545
778.009	23.36028
778.412	23.461
778.815	23.05125
779.218	23.71151
779.621	22.76976
780.023	23.33419
780.426	22.83091
780.829	23.31827
781.231	23.61363
781.634	22.86127
782.036	23.63493
782.439	23.07212
782.841	23.23339
783.244	23.40234
783.646	23.11433
784.048	23.43837
784.45	22.91676
784.852	23.03569
785.254	22.66428
785.656	23.02108
786.058	22.96319
786.46	22.34393
786.862	22.65038
787.264	22.55374
787.665	22.89595
788.067	22.70568
788.468	22.75908
788.87	23.25248
789.271	22.92023
789.673	23.48684
790.074	23.0506
790.475	23.1989
790.877	23.2214
791.278	22.52791
791.679	23.81459
792.08	22.53648
792.481	23.0843
792.882	23.18837
793.283	22.55372
793.683	23.20101
794.084	22.94374
794.485	23.37634
794.886	23.46402
795.286	22.49142
795.687	23.18489
796.087	22.71316
796.487	23.22347
796.888	23.26553
797.288	22.49982
797.688	23.43307
798.088	22.67242
798.489	23.53219
798.889	23.70979
799.289	23.28944
799.689	23.62804
800.088	23.12995
800.488	23.28105
800.888	23.31222
801.288	23.00071
801.687	23.61208
802.087	23.21093
802.486	23.34653
802.886	23.65861
803.285	23.06352
803.685	23.66103
804.084	23.39082
804.483	23.47913
804.882	23.35506
805.281	23.33745
805.68	23.99141
806.079	23.07989
806.478	23.43656
806.877	23.32033
807.276	23.72902
807.675	23.95343
808.074	23.42461
808.472	23.85573
808.871	23.8954
809.269	23.03013
809.668	23.31884
810.066	23.50707
810.465	23.12862
810.863	23.39732
811.261	23.181
811.659	23.58614
812.057	24.05756
812.455	23.42347
812.853	23.64513
813.251	23.41033
813.649	23.39484
814.047	23.66371
814.445	23.23646
814.843	23.35037
815.24	23.39129
815.638	23.55919
816.035	23.65237
816.433	23.68504
816.83	23.63631
817.228	23.91298
817.625	23.05884
818.022	23.59567
818.419	23.65946
818.816	23.28704
819.213	23.51964
819.61	23.55778
820.007	23.78838
820.404	24.09804
820.801	23.76386
821.198	24.5614
821.595	24.15098
821.991	24.32499
822.388	25.01917
822.784	24.83994
823.181	25.45435
823.577	25.50009
823.974	25.33265
824.37	25.94879
824.766	25.24568
825.162	25.05077
825.558	25.28894
825.954	24.49462
826.35	24.99851
826.746	25.25601
827.142	24.73488
827.538	25.39194
827.934	25.4251
828.33	25.29758
828.725	25.65278
829.121	24.82543
829.516	24.73759
829.912	24.89366
830.307	24.62794
830.703	24.5652
831.098	24.31594
831.493	24.4157
831.888	24.4973
832.283	23.90414
832.678	24.33849
833.073	24.82777
833.468	24.22709
833.863	24.58349
834.258	25.16417
834.653	24.52881
835.048	25.22175
835.442	25.28606
835.837	24.73283
836.231	25.32364
836.626	24.8622
837.02	25.36297
837.415	25.18954
837.809	24.58057
838.203	25.0795
838.597	24.5012
838.991	24.12576
839.385	24.55964
839.779	24.59241
840.173	24.41977
840.567	25.27191
840.961	25.24144
841.355	24.98235
841.748	25.69112
842.142	25.27087
842.536	24.95887
842.929	25.9143
843.323	25.30775
843.716	25.48025
844.109	26.05257
844.503	25.12392
844.896	25.32416
845.289	25.53767
845.682	25.23888
846.075	24.95784
846.468	25.46533
846.861	25.75615
847.254	25.72569
847.647	25.43268
848.04	25.0316
848.432	25.83194
848.825	25.71097
849.217	24.9678
849.61	25.45702
850.002	25.36167
850.395	24.78886
850.787	25.99062
851.179	25.17458
851.572	25.78114
851.964	26.0565
852.356	25.17656
852.748	25.20812
853.14	25.38082
853.532	25.91113
853.924	24.8627
854.315	25.11204
854.707	25.5481
855.099	25.31118
855.491	25.79696
855.882	25.47872
856.274	25.23218
856.665	25.37692
857.056	25.13337
857.448	26.02937
857.839	25.9851
858.23	25.17939
858.621	26.30076
859.012	24.94112
859.403	25.18792
859.794	25.58069
860.185	25.58075
860.576	24.98028
860.967	26.30894
861.358	25.53817
861.748	25.73401
862.139	26.21428
862.529	25.5152
862.92	25.39141
863.31	24.83921
863.701	25.63827
864.091	25.22142
864.481	26.24917
864.872	25.50078
865.262	24.34384
865.652	26.26867
866.042	25.98441
866.432	25.49906
866.822	26.77949
867.211	25.99719
867.601	25.81437
867.991	25.74041
868.381	26.09376
868.77	25.22683
869.16	26.2834
869.549	25.57337
869.939	25.26874
870.328	25.84306
870.717	25.88858
871.106	25.33367
871.496	25.69184
871.885	25.4297
872.274	25.17372
872.663	25.95977
873.052	26.30532
873.441	25.20265
873.829	25.27008
874.218	26.01584
874.607	25.62033
874.996	25.70173
875.384	25.54602
875.773	25.11105
876.161	25.25473
876.549	25.33307
876.938	25.02268
877.326	24.89669
877.714	25.51408
878.102	24.64096
878.491	25.11044
878.879	25.57224
879.267	24.66224
879.655	24.98034
880.042	25.6801
880.43	25.52033
880.818	25.31127
881.206	26.17808
881.593	25.87183
881.981	25.77269
882.368	26.29913
882.756	26.3856
883.143	26.04051
883.53	26.29804
883.918	25.71932
884.305	25.31497
884.692	25.93457
885.079	25.82968
885.466	24.95783
885.853	25.65965
886.24	25.55844
886.627	25.16562
887.014	24.83963
887.4	25.73889
887.787	25.16569
888.174	25.84049
888.56	25.84999
888.947	25.7526
889.333	25.29852
889.719	25.42044
890.106	25.18285
890.492	24.71544
890.878	24.64867
891.264	25.52582
891.65	24.46416
892.036	24.59157
892.422	25.2588
892.808	24.53835
893.194	24.54996
893.58	25.61282
893.965	24.98509
894.351	24.70547
894.736	25.05838
895.122	24.8239
895.507	24.6897
895.893	24.90937
896.278	25.17102
896.663	24.90778
897.049	25.1395
897.434	24.71312
897.819	24.62325
898.204	24.87542
898.589	24.85774
898.974	24.81562
899.359	24.43185
899.743	24.56818
900.128	24.72391
900.513	24.39538
900.897	24.59036
901.282	24.77997
901.667	23.83698
902.051	24.55419
902.435	24.79431
902.82	24.01944
903.204	23.48592
903.588	24.81472
903.972	25.03993
904.356	24.25947
904.74	24.4539
905.124	24.75483
905.508	24.29722
905.892	24.82287
906.276	24.75627
906.659	25.24313
907.043	24.15962
907.427	24.46292
907.81	25.12442
908.194	24.43361
908.577	24.5619
908.96	24.56817
909.344	24.78025
909.727	25.92996
910.11	25.45773
910.493	24.42289
910.876	24.36017
911.259	25.09017
911.642	24.89045
912.025	24.50788
912.408	23.51768
912.79	24.90608
913.173	23.41064
913.556	24.32766
913.938	24.39545
914.321	24.42537
914.703	24.09371
915.086	24.5592
915.468	24.81361
915.85	24.33116
916.232	23.94176
916.614	24.71813
916.996	24.60828
917.378	24.05018
917.76	24.01658
918.142	24.7332
918.524	24.4289
918.906	24.31834
919.288	24.8102
919.669	24.4227
920.051	23.66999
920.432	25.07703
920.814	25.20458
921.195	23.7143
921.577	24.42162
921.958	23.96071
922.339	24.63062
922.72	24.3685
923.101	24.15919
923.482	24.33414
923.863	23.44528
924.244	23.90822
924.625	24.24064
925.006	24.27436
925.387	23.12499
925.767	25.30323
926.148	23.6822
926.528	24.20662
926.909	23.8468
927.289	25.03238
927.67	24.61911
928.05	23.90244
928.43	23.91056
928.81	23.98463
929.191	22.93408
929.571	24.52906
929.951	24.00003
930.331	24.48744
930.71	23.91779
931.09	24.50386
931.47	23.86333
931.85	24.52354
932.229	22.65633
932.609	24.40717
932.988	23.94936
933.368	23.85416
933.747	23.59544
934.127	23.23326
934.506	23.53742
934.885	22.46842
935.264	23.65405
935.643	23.21662
936.022	23.61223
936.401	22.58261
936.78	24.6818
937.159	23.38407
937.538	22.65723
937.916	23.19717
938.295	23.50999
938.674	23.58736
939.052	23.9185
939.431	23.95706
939.809	24.17363
940.187	24.18098
940.566	24.24699
940.944	22.81593
941.322	24.49221
941.7	23.14713
942.078	21.73574
942.456	23.16604
942.834	23.76241
943.212	22.48506
943.59	23.6621
943.968	22.27077
944.345	22.91999
944.723	21.66248
945.1	22.64217
945.478	22.06392
945.855	21.08773
946.233	22.90592
946.61	22.46378
946.987	21.33954
947.365	22.3906
947.742	22.11213
948.119	23.33585
948.496	20.71186
948.873	22.07148
949.25	21.24509
949.626	22.71268
950.003	21.86212
950.38	21.21113
950.756	22.11358
951.133	21.05412
951.51	20.65339
951.886	21.38153
952.262	22.20096
952.639	22.67544
953.015	20.90717
953.391	20.50345
953.767	22.20618
954.143	20.13621
954.519	20.61719
954.895	20.09541
955.271	21.03665
955.647	19.47461
956.023	20.15368
956.399	21.03266
956.774	21.2438
957.15	18.61327
957.525	20.83115
957.901	19.95548
958.276	20.8462
958.652	19.37165
959.027	19.54345
959.402	22.31684
959.777	20.26654
960.152	19.8489
960.527	20.50145
960.902	19.31572
961.277	21.89902
961.652	19.73669
962.027	19.58785
962.402	21.23088
962.776	23.00416
963.151	19.75649
963.525	20.25898
963.9	20.58391
964.274	21.06489
964.649	22.90824
965.023	19.33641
965.397	22.28215
965.771	21.33583
966.146	20.83848
966.52	20.6412
966.894	19.6931
967.268	21.4946
967.641	21.3992
968.015	19.91136
968.389	19.78731
968.763	20.04495
969.136	18.53435
969.51	19.9818
969.883	19.96263
970.257	21.59973
970.63	19.40622
971.003	19.47089
971.377	22.0041
971.75	20.52977
972.123	21.40632
972.496	21.83564
972.869	17.76405
973.242	20.35656
973.615	20.82824
973.988	20.96578
974.36	19.37334
974.733	18.90518
975.106	20.31825
975.478	20.78011
975.851	20.77848
976.223	19.61041
976.596	18.2849
976.968	21.14639
977.34	19.87534
977.712	20.63162
978.085	18.62099
978.457	20.4367
978.829	20.29962
979.201	19.5296
979.573	20.33617
979.944	19.43741
980.316	19.33781
980.688	20.31293
981.059	20.95061
981.431	19.85452
981.803	21.05158
982.174	20.98416
982.545	19.89442
982.917	21.07957
983.288	19.77668
983.659	19.15916
984.03	18.46183
984.401	21.18241
984.772	21.78325
985.143	19.96363
985.514	19.90834
985.885	20.62379
986.256	20.24254
986.627	18.5922
986.997	20.02276
987.368	18.6094
987.738	19.2728
988.109	18.68374
988.479	17.31236
988.85	18.6007
989.22	19.26889
989.59	19.17363
989.96	18.88332
990.33	18.04547
990.7	18.86733
991.07	17.52771
991.44	18.14138
991.81	19.39215
992.18	18.87245
992.549	20.53984
992.919	19.39031
993.289	18.13859
993.658	19.14379
994.028	20.29031
994.397	18.41958
994.766	18.61455
995.136	20.82807
995.505	19.82526
995.874	22.33847
996.243	18.82704
996.612	21.06369
996.981	17.71088
997.35	19.42472
997.719	18.32676
998.088	19.6196
998.456	19.48486
998.825	18.98793
999.194	17.90332
999.562	20.67916
999.931	21.91448
1000.299	16.96911
1000.667	20.18956
1001.036	18.996
1001.404	19.46317
1001.772	20.06688
1002.14	17.81565
1002.508	22.32984
1002.876	14.42732
1003.244	22.36975
1003.612	19.47738
1003.98	22.7214
1004.347	16.44769
1004.715	19.00303
1005.083	19.31495
1005.45	17.36063
1005.818	18.27097
1006.185	15.53458
1006.552	19.03987
1006.92	18.27489
1007.287	19.33557
1007.654	19.03365
1008.021	17.23734
1008.388	19.34738
1008.755	19.67888
1009.122	19.10003
1009.489	18.56245
1009.856	22.32734
1010.222	19.23138
1010.589	16.02101
1010.956	21.32761
1011.322	17.0714
1011.689	18.93564
1012.055	17.48787
1012.421	19.18208
1012.788	14.44584
1013.154	21.8372
1013.52	18.05401
1013.886	17.4998
1014.252	17.81355
1014.618	17.94694
1014.984	16.1735
1015.35	21.60909
1015.716	20.7415
1016.081	19.28051
1016.447	18.86735
1016.813	25.17888
1017.178	21.61875
1017.544	17.51515
1017.909	18.98881
1018.274	18.08661
1018.64	15.495
1019.005	20.74728
1019.37	17.94969
1019.735	24.17923
1020.1	17.7526
1020.465	20.07396
1020.83	12.61836
1021.195	18.48193
1021.56	19.48635
1021.924	17.58437
1022.289	15.25254
1022.654	21.87937
1023.018	14.08585
1023.383	16.4062
1023.747	16.08702
1024.111	9.82653
1024.476	21.23214
1024.84	14.62914
1025.204	15.71938
1025.568	11.92414
1025.932	16.30468
1026.296	13.38634
1026.66	17.90844
1027.024	17.45
1027.387	10.83723
1027.751	18.38466
1028.115	24.72453
1028.478	21.22314
1028.842	18.41631
1029.205	13.48521
1029.569	10.88449
1029.932	14.90772
1030.295	9.77794
1030.659	11.80091
1031.022	10.78229
1031.385	26.55698
1031.748	20.92734
1032.111	9.20946
1032.474	14.05337
1032.836	11.04646
1033.199	14.65028
1033.562	13.81249
1033.924	22.20937
1034.287	16.57096
1034.65	16.78744
1035.012	6.71584
1035.374	32.2937
1035.737	14.44245
1036.099	10.94435
1036.461	10.46163
1036.823	12.67257
1037.185	20.17612
1037.547	7.25671
1037.909	5.29279
1038.271	14.44602
1038.633	5.81877
1038.995	20.92707
1039.356	10.67616
1039.718	8.93005
1040.08	18.20168
1040.441	5.67079
1040.803	12.93072
1041.164	9.81339
1041.525	22.95833
1041.886	6.46526
1042.248	9.39403
1042.609	16.6591
1042.97	6.82226
1043.331	14.94262
1043.692	3.44675
1044.053	22.09558
1044.413	6.85172
1044.774	29.46661
1045.135	9.43813
1045.495	5.99723
1045.856	7.90389
1046.216	-7.72607
1046.577	19.36252
1046.937	6.39331
1047.298	-2.34641
