Data from 1017water_Reflection__21__21-02-30-727.txt Node

Date: Fri Oct 17 21:02:30 AST 2025
User: lin
Spectrometer: SR600411
Trigger mode: 0
Integration Time (sec): 5.846600E-2
Scans to average: 5
Nonlinearity correction enabled: true
Boxcar width: 0
Storing dark spectrum: false
XAxis mode: Wavelengths
Number of Pixels in Spectrum: 2048
>>>>>Begin Spectral Data<<<<<
187.982	52.35027
188.456	56.87798
188.93	36.96317
189.403	47.22709
189.877	44.60482
190.351	35.38917
190.825	49.79132
191.298	40.55039
191.772	38.29486
192.246	52.62128
192.719	40.85544
193.193	26.19212
193.666	51.23814
194.139	54.06581
194.613	53.80622
195.086	40.454
195.559	48.83986
196.033	54.25218
196.506	46.40933
196.979	58.23265
197.452	52.93428
197.925	50.64817
198.398	49.47542
198.871	66.10497
199.344	40.788
199.816	50.13172
200.289	64.00585
200.762	45.24921
201.235	52.03714
201.707	58.00867
202.18	38.11311
202.652	39.52676
203.125	45.67106
203.597	33.32754
204.07	29.60157
204.542	23.90642
205.014	38.63763
205.486	28.48145
205.959	68.04007
206.431	20.74955
206.903	63.68709
207.375	24.99496
207.847	10.29163
208.319	37.56066
208.791	15.59349
209.263	19.07997
209.734	31.64873
210.206	16.36066
210.678	39.85784
211.15	24.59856
211.621	6.16272
212.093	19.83091
212.564	53.42867
213.036	24.77459
213.507	31.75041
213.979	47.72293
214.45	29.44605
214.921	3.99924
215.392	33.60118
215.864	21.36363
216.335	58.88458
216.806	45.09305
217.277	12.84162
217.748	34.86159
218.219	24.75803
218.69	42.59537
219.161	63.63335
219.631	6.72948
220.102	29.45206
220.573	47.64994
221.043	7.69121
221.514	25.80176
221.985	30.2989
222.455	7.69085
222.926	33.6315
223.396	45.30623
223.866	2.10488
224.337	25.2131
224.807	19.99731
225.277	18.30776
225.747	37.6014
226.217	45.79884
226.687	27.17031
227.157	26.85035
227.627	-23.07254
228.097	19.62682
228.567	33.62332
229.037	29.0023
229.507	35.76019
229.977	-7.69082
230.446	-9.58752
230.916	37.2297
231.386	31.57489
231.855	29.27998
232.325	42.01107
232.794	39.82492
233.263	21.96522
233.733	47.61386
234.202	32.11088
234.671	5.21627
235.14	-3.54508
235.61	54.99412
236.079	-4.25449
236.548	47.2673
237.017	21.6179
237.486	53.50317
237.955	10.3075
238.424	26.96283
238.892	37.85928
239.361	18.51449
239.83	42.67896
240.299	20.90549
240.767	6.34847
241.236	8.64071
241.704	46.93395
242.173	53.84232
242.641	-1.96038
243.109	47.75458
243.578	35.93167
244.046	15.38294
244.514	41.58749
244.982	32.99562
245.451	25.80293
245.919	-2.10486
246.387	47.75457
246.855	39.44883
247.323	45.55114
247.791	-24.13278
248.258	27.26884
248.726	49.43381
249.194	56.97258
249.662	28.91229
250.129	13.51095
250.597	9.00721
251.064	25.894
251.532	34.03838
251.999	-29.53879
252.467	79.37831
252.934	30.22718
253.401	21.42532
253.869	-4.03958
254.336	17.43941
254.803	32.78158
255.27	11.57702
255.737	17.58949
256.204	11.2662
256.671	36.62903
257.138	27.26841
257.605	55.25758
258.072	32.04457
258.539	-15.18714
259.005	62.69258
259.472	24.17745
259.939	37.0333
260.405	25.27133
260.872	47.13941
261.338	1.73874
261.805	51.50863
262.271	41.95115
262.737	58.06004
263.203	38.15435
263.67	5.50347
264.136	25.54229
264.602	41.1724
265.068	-20.92593
265.534	30.50352
266	15.17572
266.466	28.94428
266.932	45.89565
267.398	4.70513
267.864	-0.88476
268.329	48.08513
268.795	-44.43531
269.261	24.2681
269.726	43.55944
270.192	12.35764
270.657	29.33026
271.123	18.86472
271.588	32.69004
272.053	34.06807
272.519	15.14983
272.984	25.52838
273.449	24.48621
273.914	23.45392
274.379	33.33016
274.844	39.99477
275.309	15.68361
275.774	37.18449
276.239	36.16592
276.704	11.1097
277.169	-27.70504
277.634	26.52683
278.098	-16.66413
278.563	16.43637
279.028	50.72122
279.492	32.0344
279.957	32.85409
280.421	62.92568
280.886	9.67581
281.35	64.2819
281.814	8.40958
282.279	-1.35115
282.743	26.9961
283.207	68.74592
283.671	-46.33046
284.135	16.66386
284.599	-11.42681
285.063	36.73019
285.527	40.15144
285.991	49.25042
286.455	-3.29609
286.919	49.36318
287.382	16.34334
287.846	22.60471
288.31	51.05919
288.773	19.07997
289.237	51.68908
289.7	34.58051
290.164	-22.96884
290.627	41.931
291.09	60.91544
291.554	-32.78164
292.017	48.53861
292.48	36.61646
292.943	26.3136
293.406	30.83661
293.869	10.22567
294.332	28.202
294.795	58.75824
295.258	-24.99481
295.721	46.99507
296.184	16.36215
296.646	38.56487
297.109	16.27675
297.572	47.18662
298.034	35.93167
298.497	77.65635
298.959	28.7196
299.422	-16.43559
299.884	38.83729
300.346	56.09357
300.809	15.88503
301.271	57.64295
301.733	-3.41798
302.195	-21.73672
302.657	43.99513
303.119	28.91228
303.581	3.7969
304.043	30.0928
304.505	22.98546
304.967	8.57034
305.429	35.70983
305.891	5.55462
306.352	46.50739
306.814	30.98291
307.275	8.6007
307.737	37.36915
308.198	21.73603
308.66	40.50257
309.121	42.10068
309.583	49.99624
310.044	29.22545
310.505	43.95161
310.966	4.83814
311.428	94.04669
311.889	57.88924
312.35	35.70984
312.811	-7.86368
313.272	10.4149
313.733	8.99838
314.193	-43.42992
314.654	46.70859
315.115	-4.59687
315.576	24.72776
316.036	35.58787
316.497	-1.04147
316.957	24.7746
317.418	42.56937
317.878	12.49827
318.339	30.3548
318.799	26.16414
319.259	-21.94688
319.72	32.5804
320.18	11.70021
320.64	18.99696
321.1	35.89211
321.56	5.30861
322.02	0
322.48	27.84496
322.94	-8.5695
323.4	36.16592
323.86	1.40826
324.319	-111.09859
324.779	21.68396
325.239	31.81346
325.698	-8.0791
326.158	74.72187
326.617	95.17997
327.077	24.52442
327.536	40.73687
327.996	8.16181
328.455	38.23212
328.914	19.99763
329.373	-23.63318
329.832	18.36444
330.292	88.60602
330.751	27.35433
331.21	-40.67129
331.668	30.57343
332.127	13.22039
332.586	22.75995
333.045	30.08379
333.504	-59.24918
333.962	49.10161
334.421	44.15208
334.88	-38.0208
335.338	34.48017
335.797	4.34745
336.255	-7.59366
336.714	43.54236
337.172	17.77517
337.63	14.11561
338.088	26.6013
338.547	46.2212
339.005	46.31112
339.463	48.80537
339.921	-67.2605
340.379	43.81589
340.837	-11.99801
341.295	-14.60379
341.753	17.70557
342.21	52.56025
342.668	12.84162
343.126	48.03418
343.584	11.45641
344.041	-7.21501
344.499	37.6301
344.956	25.2841
345.414	48.04815
345.871	27.34583
346.328	-12.498
346.786	28.44361
347.243	-22.49564
347.7	-11.24802
348.157	32.13924
348.614	33.32845
349.071	-17.49837
349.528	29.54183
349.985	37.67476
350.442	3.57086
350.899	28.40555
351.356	28.88523
351.812	-27.77146
352.269	52.43498
352.726	40.37967
353.182	19.11557
353.639	32.55254
354.095	47.18662
354.552	18.80883
355.008	19.40091
355.465	37.28268
355.921	18.17955
356.377	43.67394
356.833	15.09165
357.289	48.29925
357.745	0
358.201	-1.9798
358.657	59.99335
359.113	-8.76978
359.569	24.81246
360.025	40.86407
360.481	44.17768
360.937	23.26483
361.392	56.38698
361.848	21.89767
362.303	31.53727
362.759	43.07752
363.214	14.85932
363.67	35.36779
364.125	33.91866
364.581	37.16231
365.036	42.79568
365.491	53.8047
365.946	42.88186
366.401	39.34244
366.856	30.08281
367.311	53.63423
367.766	46.93497
368.221	50.56799
368.676	45.88247
369.131	55.87433
369.586	48.87425
370.041	54.45377
370.495	51.33273
370.95	43.35533
371.404	54.83136
371.859	55.85519
372.313	44.26371
372.768	49.79416
373.222	51.81117
373.676	46.55846
374.131	50.58914
374.585	53.63216
375.039	47.87187
375.493	54.69928
375.947	50.32424
376.401	54.19003
376.855	51.1501
377.309	48.95531
377.763	48.57616
378.217	55.73045
378.67	51.59311
379.124	55.55761
379.578	55.05474
380.031	52.31327
380.485	52.75904
380.938	54.09497
381.392	53.15842
381.845	54.71474
382.299	52.68427
382.752	52.6978
383.205	52.45
383.658	51.65109
384.111	53.91119
384.564	51.45952
385.018	52.65015
385.471	53.39898
385.923	54.04749
386.376	53.79178
386.829	52.56946
387.282	54.16204
387.735	54.08768
388.187	53.72611
388.64	54.00133
389.093	52.88491
389.545	52.40334
389.998	53.05025
390.45	53.89929
390.902	54.08738
391.355	53.81126
391.807	54.62027
392.259	54.60884
392.711	54.24977
393.163	54.10376
393.615	54.40243
394.068	54.68737
394.519	54.2661
394.971	53.85256
395.423	53.57169
395.875	54.17199
396.327	53.60298
396.779	54.33367
397.23	53.85654
397.682	53.13267
398.133	54.06341
398.585	54.45712
399.036	53.90447
399.488	54.65115
399.939	53.64307
400.39	53.55634
400.842	52.03121
401.293	53.91051
401.744	53.57477
402.195	53.41643
402.646	54.07905
403.097	52.56609
403.548	52.86848
403.999	52.43427
404.45	53.40947
404.9	52.93998
405.351	52.94664
405.802	53.17012
406.253	52.38068
406.703	52.82278
407.154	52.50782
407.604	52.91909
408.055	51.72493
408.505	52.10409
408.955	52.05643
409.406	51.58495
409.856	51.43224
410.306	51.2586
410.756	51.08277
411.206	50.77834
411.656	50.7605
412.106	50.34045
412.556	50.365
413.006	50.50291
413.456	49.53213
413.905	49.79626
414.355	49.69402
414.805	49.34373
415.254	49.61374
415.704	49.93841
416.153	49.12957
416.603	49.14002
417.052	49.06935
417.502	48.41869
417.951	48.82247
418.4	49.1247
418.849	48.68982
419.298	48.34209
419.748	48.43104
420.197	48.37321
420.646	48.24935
421.094	47.38681
421.543	47.89219
421.992	47.777
422.441	47.44919
422.89	47.21161
423.338	47.58492
423.787	47.09976
424.236	46.87949
424.684	47.09303
425.133	46.5631
425.581	46.37465
426.029	45.99035
426.478	45.84252
426.926	45.88983
427.374	46.26055
427.822	45.94606
428.27	45.57031
428.718	45.49662
429.166	45.90184
429.614	45.99154
430.062	45.32799
430.51	45.59788
430.958	45.58879
431.406	45.5581
431.853	45.31632
432.301	45.35603
432.749	44.83728
433.196	45.09307
433.644	45.06585
434.091	44.53648
434.538	44.98929
434.986	44.21556
435.433	44.45167
435.88	44.73641
436.327	43.92237
436.775	45.1741
437.222	44.43664
437.669	44.2093
438.116	44.42863
438.563	44.25577
439.009	44.02308
439.456	44.14996
439.903	44.61147
440.35	43.87254
440.796	43.96068
441.243	43.77515
441.689	44.371
442.136	44.16233
442.582	44.29453
443.029	43.94247
443.475	43.85553
443.921	44.56
444.368	44.0922
444.814	44.13293
445.26	43.9032
445.706	44.17671
446.152	44.10508
446.598	44.11645
447.044	44.4909
447.49	44.21907
447.936	44.02074
448.381	44.24805
448.827	44.23975
449.273	44.66209
449.718	43.8886
450.164	43.82021
450.61	44.05021
451.055	44.65889
451.5	44.50431
451.946	44.48057
452.391	43.9606
452.836	44.06848
453.282	44.46098
453.727	43.99862
454.172	44.20591
454.617	44.86619
455.062	44.50961
455.507	44.30749
455.952	44.55268
456.396	44.85905
456.841	44.79491
457.286	45.17635
457.731	45.09475
458.175	44.94096
458.62	45.08297
459.064	45.08833
459.509	45.21451
459.953	45.23106
460.398	45.20064
460.842	45.07703
461.286	45.29602
461.73	45.35059
462.174	45.71981
462.619	45.63282
463.063	45.74251
463.507	45.75283
463.951	46.37409
464.394	45.82804
464.838	46.35757
465.282	46.32161
465.726	46.41988
466.17	46.92034
466.613	47.12986
467.057	47.14329
467.5	47.62319
467.944	47.64552
468.387	47.3377
468.831	48.01106
469.274	48.28975
469.717	48.40806
470.16	48.12699
470.603	48.40343
471.047	48.74711
471.49	48.61474
471.933	49.25395
472.376	49.35938
472.818	49.76309
473.261	49.7414
473.704	50.12301
474.147	50.43788
474.59	49.94003
475.032	50.44372
475.475	50.45833
475.917	50.40427
476.36	50.53188
476.802	50.52741
477.245	51.15381
477.687	50.75886
478.129	51.30651
478.571	51.68573
479.013	51.90341
479.456	52.0817
479.898	52.3606
480.34	52.72586
480.782	52.40279
481.224	52.93909
481.665	53.39909
482.107	53.3989
482.549	53.41576
482.991	53.42741
483.432	53.50714
483.874	53.84505
484.315	53.63529
484.757	54.14751
485.198	53.83836
485.64	54.18032
486.081	54.81578
486.522	54.21501
486.963	54.23878
487.405	54.30557
487.846	54.40839
488.287	54.83727
488.728	54.42512
489.169	55.23424
489.61	54.79336
490.05	54.51433
490.491	55.22899
490.932	55.16925
491.373	55.42872
491.813	55.21915
492.254	55.3266
492.694	55.29236
493.135	55.61351
493.575	55.11496
494.016	55.58232
494.456	55.75117
494.896	55.66043
495.336	56.15441
495.777	55.87437
496.217	55.80089
496.657	56.02507
497.097	56.2682
497.537	56.01971
497.977	56.59018
498.416	56.49515
498.856	57.10585
499.296	56.94845
499.736	56.98607
500.175	56.69737
500.615	56.39587
501.054	56.98579
501.494	57.09172
501.933	57.17508
502.373	57.62995
502.812	57.69858
503.251	57.65346
503.69	57.98825
504.129	58.16493
504.569	58.25638
505.008	58.20921
505.447	58.87509
505.886	58.8752
506.324	59.06561
506.763	59.01199
507.202	60.25203
507.641	59.67962
508.079	59.9558
508.518	60.49533
508.957	60.49676
509.395	61.03727
509.834	61.28345
510.272	61.32015
510.71	61.76751
511.149	61.59063
511.587	61.84111
512.025	61.0844
512.463	62.01377
512.901	62.14389
513.339	62.13494
513.777	63.40756
514.215	62.98619
514.653	63.3478
515.091	63.29635
515.529	64.00003
515.966	63.93485
516.404	64.00218
516.842	64.30852
517.279	64.28042
517.717	64.21177
518.154	64.8062
518.592	65.09917
519.029	65.79204
519.466	65.48768
519.904	66.27059
520.341	66.27978
520.778	66.14185
521.215	66.79454
521.652	67.21854
522.089	66.78604
522.526	67.52787
522.963	66.8922
523.399	67.14387
523.836	67.47935
524.273	67.88202
524.71	68.24559
525.146	68.46623
525.583	68.82538
526.019	68.94276
526.456	68.94888
526.892	69.47668
527.328	69.53403
527.765	69.44098
528.201	69.81732
528.637	69.94543
529.073	71.00731
529.509	70.91493
529.945	70.79835
530.381	71.22194
530.817	70.73698
531.253	71.10409
531.689	71.69832
532.124	71.51326
532.56	72.30858
532.996	72.35533
533.431	71.95955
533.867	72.63098
534.302	72.62844
534.738	72.68613
535.173	73.35339
535.608	72.93308
536.044	73.32633
536.479	73.67966
536.914	73.35714
537.349	73.54134
537.784	73.46303
538.219	73.78959
538.654	73.81189
539.089	73.76913
539.524	74.02387
539.959	74.34419
540.393	74.30835
540.828	74.20073
541.263	74.62975
541.697	74.22412
542.132	75.07761
542.566	74.93031
543.001	75.22983
543.435	74.72316
543.869	75.30323
544.303	74.4418
544.738	75.12733
545.172	75.01844
545.606	74.93391
546.04	74.89272
546.474	74.50857
546.908	74.61441
547.342	74.58
547.775	74.4793
548.209	75.18728
548.643	74.31931
549.077	74.39668
549.51	74.34415
549.944	74.16476
550.377	74.62157
550.811	74.13399
551.244	74.2816
551.677	74.15488
552.111	73.52093
552.544	73.69057
552.977	73.17235
553.41	72.79717
553.843	73.0963
554.276	72.88116
554.709	73.26677
555.142	73.08317
555.575	73.28133
556.008	72.73897
556.44	72.41138
556.873	71.8714
557.306	72.64703
557.738	72.18979
558.171	71.70043
558.603	71.73206
559.036	71.53461
559.468	71.37786
559.9	70.67866
560.333	70.18405
560.765	70.35855
561.197	69.97583
561.629	69.57217
562.061	69.88488
562.493	69.43179
562.925	69.3753
563.357	68.93663
563.789	69.06624
564.22	68.71133
564.652	68.58382
565.084	68.58918
565.515	68.20398
565.947	68.38026
566.378	67.92783
566.81	68.07494
567.241	67.39993
567.672	66.66562
568.104	67.02528
568.535	67.00493
568.966	66.21755
569.397	65.69152
569.828	66.36579
570.259	65.48268
570.69	65.45406
571.121	65.08548
571.552	64.92246
571.983	64.65936
572.414	63.89691
572.844	63.82947
573.275	63.82647
573.705	63.92472
574.136	63.4141
574.566	63.01113
574.997	62.71493
575.427	62.50164
575.857	61.96955
576.288	62.11794
576.718	61.44702
577.148	61.51154
577.578	61.65721
578.008	60.46203
578.438	60.73307
578.868	60.31409
579.298	60.31769
579.728	60.11667
580.157	60.44179
580.587	59.51512
581.017	59.7499
581.446	58.76529
581.876	59.09791
582.305	58.56188
582.735	58.51835
583.164	58.05123
583.593	57.696
584.023	57.44071
584.452	57.4081
584.881	57.15255
585.31	56.85501
585.739	56.66299
586.168	56.36606
586.597	56.10078
587.026	56.15662
587.455	55.69229
587.884	55.66042
588.312	55.36028
588.741	55.18779
589.17	55.12144
589.598	55.11406
590.027	55.09128
590.455	54.50524
590.884	54.82997
591.312	54.08947
591.74	54.21083
592.168	53.90662
592.597	53.48279
593.025	53.38426
593.453	53.48634
593.881	52.76038
594.309	52.60813
594.737	52.21358
595.165	51.86686
595.592	51.74445
596.02	51.41211
596.448	51.8237
596.875	51.39919
597.303	51.13128
597.73	51.18593
598.158	50.88329
598.585	50.72922
599.013	50.73665
599.44	50.50943
599.867	50.13451
600.294	50.22461
600.722	49.91101
601.149	49.60595
601.576	49.55636
602.003	49.60767
602.43	49.29394
602.856	49.25724
603.283	48.61368
603.71	49.14605
604.137	48.56388
604.563	48.70923
604.99	48.59716
605.416	48.32499
605.843	48.26552
606.269	47.86509
606.696	47.76725
607.122	47.45823
607.548	46.96713
607.975	47.33078
608.401	46.87551
608.827	46.9005
609.253	46.95567
609.679	46.80595
610.105	46.32436
610.531	46.42166
610.956	46.46056
611.382	46.4825
611.808	46.65964
612.234	45.94219
612.659	45.7567
613.085	46.16628
613.51	45.91614
613.936	45.78337
614.361	45.94345
614.786	46.1128
615.212	45.41525
615.637	45.76616
616.062	45.97447
616.487	45.16514
616.912	45.9619
617.337	45.70676
617.762	45.3263
618.187	45.05776
618.612	45.03839
619.037	45.03171
619.461	45.09428
619.886	45.0165
620.311	44.93984
620.735	44.74635
621.16	44.27063
621.584	44.48506
622.008	44.77738
622.433	44.28631
622.857	44.41635
623.281	44.33135
623.705	44.80319
624.13	44.71696
624.554	44.70521
624.978	44.46759
625.402	44.65028
625.826	44.33166
626.249	44.69432
626.673	44.83995
627.097	44.6567
627.521	44.99681
627.944	44.63392
628.368	44.46568
628.791	44.52939
629.215	44.29873
629.638	44.26013
630.061	44.80813
630.485	44.88292
630.908	44.18566
631.331	44.43202
631.754	44.3708
632.177	44.65949
632.6	44.603
633.023	44.89932
633.446	44.72021
633.869	45.48809
634.292	45.23858
634.715	45.25836
635.137	45.02881
635.56	45.24617
635.982	45.18517
636.405	45.49674
636.827	45.099
637.25	45.27946
637.672	45.39323
638.094	45.71716
638.517	45.72156
638.939	46.08304
639.361	45.81447
639.783	46.17418
640.205	46.0132
640.627	46.09305
641.049	46.01843
641.471	46.29297
641.893	46.52412
642.314	46.80705
642.736	46.85929
643.158	46.81637
643.579	47.2365
644.001	46.84753
644.422	47.04478
644.844	47.22267
645.265	47.57058
645.686	47.58064
646.107	47.43199
646.529	47.61125
646.95	48.19441
647.371	48.2526
647.792	48.16549
648.213	48.8216
648.634	48.5421
649.055	48.82177
649.475	49.27113
649.896	49.50828
650.317	49.93441
650.737	49.05407
651.158	49.66282
651.578	49.72518
651.999	50.06211
652.419	49.95065
652.84	50.67515
653.26	50.83856
653.68	50.5542
654.1	50.89137
654.521	51.43559
654.941	51.70712
655.361	51.23612
655.781	52.21349
656.2	51.68502
656.62	51.64456
657.04	52.03566
657.46	51.72718
657.879	52.1127
658.299	52.24547
658.719	52.92457
659.138	52.9126
659.558	53.64064
659.977	53.04788
660.396	53.36489
660.816	53.36976
661.235	53.89813
661.654	54.22142
662.073	54.0818
662.492	54.56061
662.911	54.40818
663.33	54.46933
663.749	54.58018
664.168	54.66948
664.587	54.35814
665.006	55.64592
665.424	55.34462
665.843	55.38667
666.261	55.71328
666.68	55.53777
667.098	56.34825
667.517	56.19296
667.935	55.95324
668.353	55.57306
668.772	55.92588
669.19	55.88426
669.608	56.02078
670.026	56.61038
670.444	56.48406
670.862	56.11276
671.28	56.64456
671.698	56.69902
672.115	56.85768
672.533	57.05309
672.951	56.60903
673.368	56.87033
673.786	56.91913
674.203	56.62248
674.621	56.67478
675.038	56.7071
675.456	57.18846
675.873	56.88004
676.29	57.40901
676.707	56.80727
677.124	57.4109
677.541	57.08373
677.958	57.03303
678.375	57.01608
678.792	57.0757
679.209	57.23974
679.626	57.27105
680.043	57.35563
680.459	57.22184
680.876	57.39656
681.292	57.55316
681.709	57.20725
682.125	57.03948
682.542	57.22971
682.958	56.55887
683.374	56.51801
683.79	56.84304
684.207	56.39823
684.623	56.6791
685.039	56.68005
685.455	57.0822
685.871	56.41249
686.286	56.44964
686.702	56.01093
687.118	56.45062
687.534	56.323
687.949	56.00137
688.365	55.5056
688.781	55.83007
689.196	55.29784
689.611	54.96838
690.027	55.14889
690.442	54.8723
690.857	55.08123
691.273	54.30661
691.688	55.05713
692.103	54.39183
692.518	53.96237
692.933	54.14274
693.348	53.79661
693.763	53.9924
694.177	53.39211
694.592	53.32319
695.007	52.82927
695.421	52.30824
695.836	52.12017
696.25	52.10753
696.665	51.68374
697.079	51.84247
697.494	51.4745
697.908	51.56633
698.322	51.19066
698.736	50.5674
699.151	50.89289
699.565	50.71302
699.979	51.00199
700.393	50.73199
700.806	50.49908
701.22	50.03373
701.634	49.43102
702.048	49.70788
702.461	49.00427
702.875	49.44456
703.289	49.07463
703.702	49.17688
704.116	48.82943
704.529	48.68466
704.942	47.89047
705.356	48.24023
705.769	47.7408
706.182	48.18441
706.595	47.29065
707.008	47.64655
707.421	46.88641
707.834	46.63328
708.247	46.1028
708.66	46.17345
709.072	46.1551
709.485	45.65641
709.898	45.75052
710.31	44.78969
710.723	45.07774
711.135	44.1736
711.548	44.62228
711.96	43.76307
712.373	43.60102
712.785	43.24676
713.197	43.0609
713.609	42.28862
714.021	42.25798
714.433	41.68024
714.845	41.88901
715.257	41.70158
715.669	41.93657
716.081	41.0912
716.493	40.66231
716.904	40.59481
717.316	40.33792
717.727	40.35325
718.139	39.45908
718.55	39.25508
718.962	39.58754
719.373	38.78199
719.784	38.82553
720.196	38.58465
720.607	38.60884
721.018	38.28527
721.429	37.79261
721.84	37.62804
722.251	37.32259
722.662	37.31784
723.073	36.61658
723.483	36.83646
723.894	36.34386
724.305	36.17197
724.715	35.69737
725.126	35.28105
725.536	35.35535
725.947	35.03134
726.357	34.75236
726.768	34.73996
727.178	34.35976
727.588	34.13655
727.998	33.76041
728.408	33.53604
728.818	33.61168
729.228	33.22448
729.638	33.56038
730.048	32.95447
730.458	33.19459
730.868	32.57721
731.277	32.24376
731.687	32.34627
732.097	31.83522
732.506	31.89919
732.916	31.77517
733.325	31.66906
733.734	32.05382
734.144	31.22873
734.553	31.3398
734.962	30.43107
735.371	30.99351
735.78	30.11107
736.189	30.48612
736.598	29.79314
737.007	30.29434
737.416	29.51549
737.825	29.84333
738.233	29.35443
738.642	29.7353
739.051	29.36926
739.459	29.26561
739.868	29.15641
740.276	29.2169
740.684	28.59187
741.093	28.717
741.501	28.36683
741.909	28.26536
742.317	28.31365
742.725	27.74091
743.133	28.21535
743.541	27.57861
743.949	27.97153
744.357	27.29164
744.765	27.83291
745.173	27.07816
745.58	27.90945
745.988	27.13402
746.396	27.27648
746.803	27.02306
747.211	27.01173
747.618	27.00821
748.025	26.74393
748.433	27.11348
748.84	26.41908
749.247	26.43679
749.654	26.09331
750.061	26.591
750.468	25.57414
750.875	26.20258
751.282	25.70772
751.689	25.93148
752.096	25.38409
752.502	25.92831
752.909	25.39932
753.316	25.39265
753.722	25.50418
754.129	25.31096
754.535	25.41234
754.941	24.87038
755.348	25.36848
755.754	24.82639
756.16	25.202
756.566	24.74487
756.972	24.65085
757.378	24.57423
757.784	24.7422
758.19	24.58677
758.596	24.0966
759.002	24.79749
759.408	23.83427
759.813	24.62019
760.219	24.28636
760.624	24.81926
761.03	23.87592
761.435	24.18595
761.841	23.91488
762.246	23.52412
762.651	23.99774
763.057	23.69638
763.462	24.84663
763.867	24.19313
764.272	24.73095
764.677	24.5779
765.082	24.44057
765.487	24.2623
765.892	24.20729
766.296	24.03809
766.701	23.61182
767.106	24.02158
767.51	23.66862
767.915	23.77685
768.319	23.81523
768.724	23.78419
769.128	23.74573
769.532	23.0863
769.936	24.20741
770.341	23.12284
770.745	23.88862
771.149	23.36959
771.553	23.6391
771.957	23.10066
772.361	23.16514
772.764	23.78844
773.168	23.22813
773.572	23.82552
773.976	23.01522
774.379	23.464
774.783	23.51456
775.186	23.00963
775.59	23.27198
775.993	23.13466
776.396	23.12895
776.8	22.51229
777.203	22.6796
777.606	22.78319
778.009	23.06495
778.412	23.12894
778.815	22.68813
779.218	23.18177
779.621	22.89156
780.023	23.07887
780.426	23.09445
780.829	22.76659
781.231	23.10726
781.634	22.30181
782.036	22.76466
782.439	22.63005
782.841	22.72438
783.244	22.87453
783.646	22.72852
784.048	23.00503
784.45	22.54805
784.852	22.53021
785.254	22.54282
785.656	22.78923
786.058	22.99255
786.46	22.26544
786.862	22.2377
787.264	22.38913
787.665	22.33702
788.067	22.85438
788.468	22.19023
788.87	22.88473
789.271	22.24212
789.673	22.73884
790.074	22.82424
790.475	22.53992
790.877	23.0264
791.278	22.47107
791.679	22.85458
792.08	22.56599
792.481	22.27888
792.882	22.79556
793.283	22.29393
793.683	22.56086
794.084	22.28569
794.485	22.1785
794.886	22.75485
795.286	21.83051
795.687	22.42203
796.087	22.31855
796.487	22.2396
796.888	22.34732
797.288	22.03468
797.688	22.87517
798.088	22.51752
798.489	22.63417
798.889	22.53843
799.289	22.25917
799.689	22.87609
800.088	22.47907
800.488	22.50217
800.888	22.82162
801.288	22.49622
801.687	23.02578
802.087	22.4333
802.486	22.70963
802.886	22.69185
803.285	22.54242
803.685	23.22815
804.084	22.67366
804.483	22.76936
804.882	23.05063
805.281	22.5332
805.68	23.3702
806.079	22.32512
806.478	23.03458
806.877	22.88904
807.276	22.92778
807.675	22.70103
808.074	22.59285
808.472	22.96383
808.871	22.78672
809.269	22.32957
809.668	22.58367
810.066	22.98793
810.465	22.37632
810.863	22.82616
811.261	22.68249
811.659	22.68003
812.057	23.42499
812.455	23.01862
812.853	22.4839
813.251	22.78828
813.649	22.48969
814.047	22.73909
814.445	22.34937
814.843	22.76871
815.24	22.77625
815.638	22.72992
816.035	22.84569
816.433	22.69724
816.83	22.79302
817.228	23.04452
817.625	22.56805
818.022	22.94746
818.419	22.93515
818.816	22.65382
819.213	23.08911
819.61	22.66614
820.007	23.06901
820.404	23.3899
820.801	22.92272
821.198	23.79034
821.595	23.65148
821.991	23.41402
822.388	24.11616
822.784	24.10471
823.181	24.42317
823.577	24.93978
823.974	24.59755
824.37	24.95893
824.766	24.49823
825.162	24.33046
825.558	24.39032
825.954	23.84199
826.35	23.91008
826.746	24.49794
827.142	24.06265
827.538	24.52266
827.934	24.74749
828.33	24.35929
828.725	24.44609
829.121	24.26968
829.516	23.84439
829.912	24.0136
830.307	23.80937
830.703	23.33323
831.098	23.55242
831.493	23.53305
831.888	23.48673
832.283	23.58937
832.678	23.25497
833.073	23.88567
833.468	23.57399
833.863	23.80638
834.258	24.17343
834.653	23.90842
835.048	24.09643
835.442	24.17368
835.837	24.09919
836.231	24.12375
836.626	23.89688
837.02	24.31706
837.415	24.00866
837.809	23.75511
838.203	23.99997
838.597	23.99562
838.991	22.95177
839.385	23.11068
839.779	24.14913
840.173	23.5961
840.567	24.11857
840.961	24.27413
841.355	23.67672
841.748	24.33756
842.142	24.63811
842.536	23.82581
842.929	24.75829
843.323	24.21999
843.716	24.17014
844.109	25.13132
844.503	24.29756
844.896	23.96192
845.289	25.22534
845.682	24.29639
846.075	24.09782
846.468	24.76338
846.861	24.36916
847.254	24.70544
847.647	24.95838
848.04	24.69738
848.432	24.98089
848.825	24.7389
849.217	23.89934
849.61	25.15925
850.002	24.44589
850.395	24.53442
850.787	24.41775
851.179	24.57394
851.572	24.9751
851.964	24.61888
852.356	24.65184
852.748	25.34392
853.14	24.57705
853.532	24.19737
853.924	24.4627
854.315	25.03551
854.707	24.33578
855.099	24.52108
855.491	24.45044
855.882	24.67539
856.274	24.44111
856.665	24.74042
857.056	24.25875
857.448	24.09319
857.839	25.02868
858.23	25.0195
858.621	24.27576
859.012	25.28735
859.403	24.05757
859.794	25.44498
860.185	25.01256
860.576	24.63076
860.967	25.18404
861.358	24.17942
861.748	24.57133
862.139	25.3441
862.529	24.89112
862.92	24.00786
863.31	25.03139
863.701	25.56809
864.091	24.41015
864.481	25.72281
864.872	25.25314
865.262	23.83448
865.652	25.24909
866.042	24.50711
866.432	24.11928
866.822	24.90119
867.211	25.18024
867.601	23.77341
867.991	25.17014
868.381	25.56765
868.77	24.41728
869.16	24.90692
869.549	24.66323
869.939	24.58212
870.328	24.84737
870.717	24.80487
871.106	24.58551
871.496	24.56669
871.885	24.81767
872.274	24.41137
872.663	24.86991
873.052	24.8308
873.441	24.45706
873.829	24.36009
874.218	25.00918
874.607	24.95451
874.996	24.61013
875.384	24.88494
875.773	24.23763
876.161	24.35367
876.549	25.12529
876.938	24.35598
877.326	24.00543
877.714	24.41479
878.102	24.0785
878.491	23.89315
878.879	24.35728
879.267	23.84684
879.655	23.84851
880.042	24.69767
880.43	24.80452
880.818	24.35435
881.206	25.00791
881.593	25.4593
881.981	25.10168
882.368	25.28485
882.756	25.43015
883.143	25.39592
883.53	25.31373
883.918	25.25744
884.305	24.73123
884.692	25.06892
885.079	25.58014
885.466	24.78963
885.853	24.7589
886.24	24.79077
886.627	24.51934
887.014	24.21327
887.4	24.70032
887.787	24.9932
888.174	23.99251
888.56	24.95753
888.947	25.13939
889.333	24.26134
889.719	24.55396
890.106	24.46371
890.492	24.04867
890.878	24.28422
891.264	24.38148
891.65	24.54533
892.036	24.14721
892.422	24.15564
892.808	24.18021
893.194	23.67601
893.58	24.48598
893.965	24.32844
894.351	23.69076
894.736	24.10696
895.122	24.04416
895.507	23.86478
895.893	24.09473
896.278	24.45408
896.663	24.27224
897.049	24.48
897.434	24.51891
897.819	23.83445
898.204	23.69643
898.589	23.84613
898.974	24.16208
899.359	23.95479
899.743	23.94089
900.128	24.36558
900.513	23.3164
900.897	23.61683
901.282	24.34299
901.667	23.12177
902.051	22.91133
902.435	24.08124
902.82	23.44365
903.204	23.03331
903.588	23.92887
903.972	23.96025
904.356	23.51649
904.74	24.3377
905.124	24.24515
905.508	24.25851
905.892	23.487
906.276	24.34213
906.659	24.13485
907.043	23.60032
907.427	23.62774
907.81	24.59317
908.194	24.00394
908.577	24.41728
908.96	24.37706
909.344	24.37599
909.727	24.18444
910.11	24.31284
910.493	24.38083
910.876	22.9552
911.259	23.65736
911.642	24.63608
912.025	24.0441
912.408	22.81594
912.79	24.08008
913.173	23.04831
913.556	23.08901
913.938	23.55492
914.321	23.86723
914.703	23.47867
915.086	23.46293
915.468	24.24822
915.85	23.74461
916.232	23.27044
916.614	24.04827
916.996	24.10713
917.378	23.2651
917.76	23.31345
918.142	24.09525
918.524	23.26759
918.906	23.46045
919.288	23.26003
919.669	23.96756
920.051	23.26681
920.432	23.76245
920.814	23.89918
921.195	22.70422
921.577	23.29002
921.958	23.27035
922.339	23.45201
922.72	22.9038
923.101	24.0479
923.482	24.06255
923.863	23.48477
924.244	23.34783
924.625	23.66615
925.006	23.4346
925.387	22.85222
925.767	22.61116
926.148	22.85654
926.528	23.30851
926.909	22.80406
927.289	23.74145
927.67	23.3268
928.05	23.36999
928.43	22.78685
928.81	23.18942
929.191	22.45884
929.571	23.10944
929.951	23.55131
930.331	23.3245
930.71	24.1722
931.09	24.57782
931.47	23.42098
931.85	24.26113
932.229	22.77082
932.609	22.30299
932.988	23.63934
933.368	22.61943
933.747	22.27647
934.127	23.73896
934.506	24.00794
934.885	22.77481
935.264	23.14716
935.643	22.55448
936.022	23.41093
936.401	22.49195
936.78	24.62024
937.159	22.95945
937.538	21.99141
937.916	21.27018
938.295	23.04957
938.674	23.31294
939.052	24.10296
939.431	23.38567
939.809	23.96145
940.187	23.80283
940.566	24.16094
940.944	22.30848
941.322	22.55537
941.7	22.02292
942.078	21.78549
942.456	22.64281
942.834	22.90315
943.212	21.07544
943.59	22.70213
943.968	21.51716
944.345	20.49183
944.723	22.68396
945.1	22.03315
945.478	21.49363
945.855	22.15338
946.233	20.95769
946.61	20.9866
946.987	21.21831
947.365	21.90719
947.742	20.60961
948.119	23.31881
948.496	22.54116
948.873	20.4739
949.25	21.74424
949.626	21.87115
950.003	21.00931
950.38	20.13239
950.756	20.88884
951.133	21.46192
951.51	20.39116
951.886	20.24065
952.262	21.63817
952.639	22.75044
953.015	21.53725
953.391	21.45012
953.767	20.26251
954.143	20.4486
954.519	19.94811
954.895	20.61274
955.271	22.69053
955.647	17.47262
956.023	20.43796
956.399	20.90067
956.774	20.97983
957.15	18.66916
957.525	19.98891
957.901	20.18032
958.276	20.16523
958.652	20.73393
959.027	18.90737
959.402	19.81007
959.777	18.17659
960.152	21.28713
960.527	20.04021
960.902	18.34076
961.277	20.30689
961.652	21.29503
962.027	18.74843
962.402	21.6647
962.776	20.56432
963.151	18.6614
963.525	19.99853
963.9	20.71861
964.274	21.90599
964.649	20.41581
965.023	19.52346
965.397	22.25086
965.771	20.92496
966.146	21.16922
966.52	20.7278
966.894	19.13997
967.268	21.2721
967.641	19.60214
968.015	18.72427
968.389	22.30866
968.763	20.17913
969.136	19.68486
969.51	20.44303
969.883	20.66593
970.257	18.5281
970.63	18.46787
971.003	20.10454
971.377	21.83639
971.75	19.46793
972.123	20.79901
972.496	20.93419
972.869	19.02996
973.242	21.97981
973.615	17.80702
973.988	21.15732
974.36	20.2378
974.733	19.71158
975.106	19.052
975.478	19.78426
975.851	20.19954
976.223	18.32057
976.596	18.27151
976.968	19.7928
977.34	19.21969
977.712	19.31698
978.085	19.21233
978.457	18.12745
978.829	20.45686
979.201	19.66645
979.573	19.58703
979.944	19.29939
980.316	19.76048
980.688	19.25182
981.059	19.76593
981.431	18.51842
981.803	20.07922
982.174	21.68261
982.545	20.37185
982.917	20.05747
983.288	20.08
983.659	18.62417
984.03	19.96372
984.401	19.7349
984.772	19.06675
985.143	19.3037
985.514	18.84255
985.885	19.36968
986.256	20.34717
986.627	17.61797
986.997	20.07191
987.368	19.23062
987.738	18.51088
988.109	19.69183
988.479	19.30489
988.85	18.35576
989.22	18.24821
989.59	18.43692
989.96	17.5946
990.33	18.10751
990.7	18.632
991.07	19.09647
991.44	18.45686
991.81	17.84034
992.18	17.80385
992.549	19.78828
992.919	19.27762
993.289	18.73639
993.658	18.50489
994.028	20.62337
994.397	19.75394
994.766	18.41362
995.136	18.84009
995.505	17.40949
995.874	21.75632
996.243	18.74326
996.612	18.12248
996.981	19.0431
997.35	18.18797
997.719	18.96796
998.088	19.65708
998.456	20.07116
998.825	19.94824
999.194	18.38171
999.562	18.11475
999.931	18.53685
1000.299	19.94846
1000.667	18.37643
1001.036	18.59474
1001.404	17.957
1001.772	21.32205
1002.14	21.82041
1002.508	18.77771
1002.876	16.34042
1003.244	20.86969
1003.612	16.36439
1003.98	20.53288
1004.347	13.5914
1004.715	14.51504
1005.083	18.59918
1005.45	18.74236
1005.818	19.0658
1006.185	19.45419
1006.552	18.28881
1006.92	20.64527
1007.287	17.13259
1007.654	17.5233
1008.021	19.71037
1008.388	22.50824
1008.755	18.17934
1009.122	20.39137
1009.489	18.75006
1009.856	19.11753
1010.222	16.01387
1010.589	16.64472
1010.956	17.92105
1011.322	17.20484
1011.689	18.45339
1012.055	14.17439
1012.421	16.14468
1012.788	14.78668
1013.154	20.70583
1013.52	21.25519
1013.886	18.09582
1014.252	17.9763
1014.618	18.84063
1014.984	15.83818
1015.35	13.37843
1015.716	20.01974
1016.081	18.28906
1016.447	21.22677
1016.813	21.65566
1017.178	22.92652
1017.544	20.87266
1017.909	19.43575
1018.274	20.22783
1018.64	14.46175
1019.005	22.62345
1019.37	17.72241
1019.735	21.0072
1020.1	16.09187
1020.465	15.98379
1020.83	19.60073
1021.195	13.40198
1021.56	25.75701
1021.924	20.68835
1022.289	13.15869
1022.654	9.16861
1023.018	17.64855
1023.383	18.84332
1023.747	17.31297
1024.111	16.19668
1024.476	19.58585
1024.84	14.09384
1025.204	23.23172
1025.568	11.51292
1025.932	11.37477
1026.296	10.47595
1026.66	18.51907
1027.024	13.71023
1027.387	14.95594
1027.751	12.97677
1028.115	15.24541
1028.478	22.3503
1028.842	14.1055
1029.205	11.2743
1029.569	17.41621
1029.932	3.26074
1030.295	14.78677
1030.659	16.57211
1031.022	13.67539
1031.385	21.89699
1031.748	14.81297
1032.111	5.06503
1032.474	12.23147
1032.836	11.5603
1033.199	14.38864
1033.562	7.85382
1033.924	9.78179
1034.287	29.57576
1034.65	8.39319
1035.012	11.82032
1035.374	35.67763
1035.737	8.95398
1036.099	26.49967
1036.461	9.63566
1036.823	8.64015
1037.185	13.65712
1037.547	3.29843
1037.909	16.50222
1038.271	12.38213
1038.633	12.32255
1038.995	20.92707
1039.356	9.19327
1039.718	17.17398
1040.08	20.11788
1040.441	10.63302
1040.803	2.79567
1041.164	5.08829
1041.525	6.71029
1041.886	0
1042.248	6.38784
1042.609	24.62757
1042.97	4.09329
1043.331	12.28596
1043.692	12.49499
1044.053	10.87174
1044.413	8.86702
1044.774	21.63281
1045.135	6.86401
1045.495	17.19299
1045.856	10.69362
1046.216	-16.41731
1046.577	31.52206
1046.937	0
1047.298	3.28505
