Data from 1017water_Reflection__29__21-03-12-886.txt Node

Date: Fri Oct 17 21:03:12 AST 2025
User: lin
Spectrometer: SR600411
Trigger mode: 0
Integration Time (sec): 5.846600E-2
Scans to average: 5
Nonlinearity correction enabled: true
Boxcar width: 0
Storing dark spectrum: false
XAxis mode: Wavelengths
Number of Pixels in Spectrum: 2048
>>>>>Begin Spectral Data<<<<<
187.982	55.39095
188.456	54.65564
188.93	47.25157
189.403	43.43419
189.877	45.23769
190.351	55.57435
190.825	63.12552
191.298	37.73945
191.772	42.32674
192.246	51.18585
192.719	42.77839
193.193	38.85387
193.666	54.98825
194.139	45.9113
194.613	52.85077
195.086	54.50041
195.559	49.12557
196.033	46.26317
196.506	53.04196
196.979	57.26166
197.452	56.48066
197.925	56.78184
198.398	50.73805
198.871	65.11794
199.344	50.55754
199.816	58.14404
200.289	55.63687
200.762	37.53066
201.235	36.46423
201.707	55.65004
202.18	29.82677
202.652	45.92179
203.125	43.20201
203.597	47.72077
204.07	41.89084
204.542	28.79688
205.014	45.88355
205.486	45.34041
205.959	70.99904
206.431	10.06005
206.903	46.48909
207.375	10.29164
207.847	-1.47019
208.319	22.09328
208.791	14.6762
209.263	13.73739
209.734	35.96489
210.206	65.44963
210.678	33.77723
211.15	15.86969
211.621	9.58654
212.093	18.17826
212.564	45.03176
213.036	38.04783
213.507	37.83095
213.979	15.90676
214.45	52.04759
214.921	-2.99939
215.392	49.99397
215.864	16.23617
216.335	48.88444
216.806	11.76261
217.277	22.93197
217.748	53.93989
218.219	39.99501
218.69	39.0453
219.161	-24.2385
219.631	51.91795
220.102	31.00229
220.573	21.08954
221.043	-23.07254
221.514	39.51027
221.985	5.04957
222.455	24.03471
222.926	44.54008
223.396	28.90105
223.866	48.41636
224.337	35.64695
224.807	24.70275
225.277	1.40826
225.747	28.20044
226.217	18.05998
226.687	20.64919
227.157	24.56502
227.627	1.28186
228.097	25.76071
228.567	68.13673
229.037	37.39852
229.507	40.13947
229.977	13.18475
230.446	-9.58752
230.916	37.2297
231.386	46.31112
231.855	44.99315
232.325	26.04588
232.794	87.28555
233.263	26.51006
233.733	34.28103
234.202	16.78454
234.671	33.90794
235.14	21.98103
235.61	28.32851
236.079	21.27348
236.548	56.35829
237.017	20.71711
237.486	28.06563
237.955	36.07805
238.424	43.81589
238.892	51.45122
239.361	24.43951
239.83	24.38725
240.299	15.4517
240.767	-49.1972
241.236	19.75054
241.704	26.52684
242.173	51.2782
242.641	7.84168
243.109	36.56101
243.578	39.05648
244.046	13.84462
244.514	13.27176
244.982	31.99569
245.451	8.6007
245.919	11.57702
246.387	43.27707
246.855	33.32687
247.323	33.32938
247.791	-11.49205
248.258	34.33902
248.726	35.95101
249.194	30.22897
249.662	56.62247
250.129	20.71712
250.597	45.03961
251.064	41.71993
251.532	22.3372
251.999	-27.26669
252.467	74.22314
252.934	20.92601
253.401	42.85241
253.869	-21.20708
254.336	38.36807
254.803	21.30744
255.27	26.31214
255.737	40.73558
256.204	22.53276
256.671	72.27323
257.138	42.72195
257.605	31.57407
258.072	12.81707
258.539	40.50256
259.005	45.23192
259.472	24.17745
259.939	18.5161
260.405	24.17253
260.872	84.28388
261.338	39.12501
261.805	68.17616
262.271	11.88515
262.737	36.55487
263.203	3.9468
263.67	26.60129
264.136	30.65118
264.602	28.23189
265.068	20.92742
265.534	26.26666
266	17.85389
266.466	36.83861
266.932	30.32277
267.398	63.52552
267.864	30.96868
268.329	26.71248
268.795	-20.82975
269.261	39.80094
269.726	43.55944
270.192	17.97493
270.657	58.66307
271.123	21.69455
271.588	-9.6143
272.053	50.36368
272.519	36.36061
272.984	36.16592
273.449	23.46591
273.914	29.62629
274.379	12.49844
274.844	31.81346
275.309	22.54549
275.774	37.18449
276.239	5.31821
276.704	24.99733
277.169	-13.25055
277.634	42.85239
278.098	9.08983
278.563	8.21809
279.028	23.18597
279.492	55.33477
279.957	17.14089
280.421	12.92845
280.886	17.20168
281.35	63.09137
281.814	14.01614
282.279	-9.45794
282.743	8.99838
283.207	32.28752
283.671	-6.09651
284.135	12.74285
284.599	-9.99848
285.063	45.91356
285.527	46.45044
285.991	40.29532
286.455	12.086
286.919	68.35105
287.382	4.80675
287.846	32.16895
288.31	44.67626
288.773	53.42867
289.237	32.19829
289.7	26.31069
290.164	-25.67095
290.627	6.4505
291.09	58.61651
291.554	-24.58647
292.017	86.40538
292.48	-4.22473
292.943	43.85687
293.406	9.344
293.869	56.81391
294.332	20.51031
294.795	42.26336
295.258	8.33207
295.721	34.9955
296.184	-9.08983
296.646	49.99308
297.109	12.7888
297.572	61.79359
298.034	33.5881
298.497	45.74007
298.959	5.31821
299.422	31.50373
299.884	44.62219
300.346	15.85149
300.809	0.93438
301.271	31.76106
301.733	34.18282
302.195	-67.38105
302.657	24.99629
303.119	25.2981
303.581	25.3135
304.043	54.36387
304.505	27.58277
304.967	21.42624
305.429	57.13811
305.891	31.10729
306.352	31.39168
306.814	95.77408
307.275	12.90116
307.737	41.40939
308.198	55.43029
308.66	10.12516
309.121	8.4196
309.583	60.52272
310.044	43.07062
310.505	43.95161
310.966	45.15825
311.428	60.71032
311.889	45.60844
312.35	49.99516
312.811	22.46884
313.272	-1.04147
313.733	44.9951
314.193	12.30222
314.654	59.84751
315.115	42.52453
315.576	29.02847
316.036	32.1983
316.497	2.08295
316.957	7.96296
317.418	27.71877
317.878	24.99703
318.339	30.3548
318.799	30.83661
319.259	1.21932
319.72	30.33336
320.18	-1.06363
320.64	43.99513
321.1	38.45606
321.56	15.04139
322.02	11.7002
322.48	21.51635
322.94	-0.95218
323.4	24.46465
323.86	2.81652
324.319	-11.11045
324.779	12.04645
325.239	35.44957
325.698	11.10918
326.158	56.03952
326.617	42.16468
327.077	29.24094
327.536	29.62629
327.996	35.70983
328.455	19.11557
328.914	46.66297
329.373	-34.5404
329.832	70.40412
330.292	25.3135
330.751	42.44771
331.21	11.86319
331.668	29.74707
332.127	49.58079
332.586	26.01158
333.045	34.50822
333.504	-35.18011
333.962	41.95889
334.421	62.33408
334.88	-9.85764
335.338	-15.51519
335.797	23.91139
336.255	-18.98381
336.714	45.96165
337.172	51.10666
337.63	4.70513
338.088	31.18804
338.547	36.78758
339.005	50.52162
339.463	66.66298
339.921	9.09001
340.379	50.55739
340.837	33.33004
341.295	2.2468
341.753	54.16196
342.21	53.84232
342.668	22.01464
343.126	41.17159
343.584	26.03801
344.041	15.46141
344.499	20.42712
344.956	39.07636
345.414	90.90783
345.871	26.49122
346.328	41.66321
346.786	41.37375
347.243	6.24907
347.7	2.49961
348.157	-7.14159
348.614	45.94049
349.071	19.99873
349.528	67.04161
349.985	18.83641
350.442	-1.19028
350.899	17.04299
351.356	49.99555
351.812	11.10935
352.269	37.80106
352.726	44.2257
353.182	51.46723
353.639	51.15642
354.095	57.29906
354.552	18.80883
355.008	70.14648
355.465	23.72459
355.921	15.58241
356.377	-8.04448
356.833	42.44771
357.289	53.38402
357.745	52.33117
358.201	-9.89882
358.657	27.85157
359.113	13.15532
359.569	6.56768
360.025	37.38598
360.481	30.80672
360.937	54.70919
361.392	40.10811
361.848	33.80025
362.303	21.47154
362.759	51.61389
363.214	40.52997
363.67	33.48124
364.125	44.63193
364.581	35.67554
365.036	45.08309
365.491	45.07748
365.946	44.91068
366.401	43.4236
366.856	43.26411
367.311	35.3772
367.766	48.96537
368.221	44.63941
368.676	49.97714
369.131	43.10849
369.586	48.50795
370.041	47.07227
370.495	52.77166
370.95	46.62384
371.404	49.831
371.859	53.26045
372.313	47.08179
372.768	47.34487
373.222	50.66497
373.676	48.90693
374.131	48.43586
374.585	54.18827
375.039	46.89675
375.493	51.54624
375.947	49.86005
376.401	54.12587
376.855	51.02997
377.309	54.48027
377.763	50.06864
378.217	54.16327
378.67	51.49501
379.124	54.06446
379.578	54.4261
380.031	52.05559
380.485	54.07059
380.938	53.52676
381.392	52.51397
381.845	53.06775
382.299	52.71648
382.752	52.54586
383.205	52.70887
383.658	52.86432
384.111	54.21589
384.564	52.11549
385.018	52.71583
385.471	53.85891
385.923	54.52602
386.376	53.19249
386.829	52.30669
387.282	54.49866
387.735	53.51099
388.187	54.0436
388.64	53.55915
389.093	55.42274
389.545	52.76235
389.998	53.15988
390.45	54.21792
390.902	54.51209
391.355	53.63078
391.807	53.68413
392.259	53.97409
392.711	54.18485
393.163	53.749
393.615	54.66867
394.068	54.86047
394.519	53.71474
394.971	53.62492
395.423	53.8652
395.875	54.23624
396.327	53.64426
396.779	53.94633
397.23	54.23426
397.682	54.04237
398.133	54.69686
398.585	54.12359
399.036	54.19757
399.488	53.85269
399.939	53.57209
400.39	53.64271
400.842	52.11637
401.293	53.9947
401.744	53.55807
402.195	52.92418
402.646	52.76792
403.097	53.43968
403.548	53.07288
403.999	53.47892
404.45	53.39926
404.9	52.40158
405.351	52.72359
405.802	52.61206
406.253	52.28248
406.703	52.99675
407.154	51.6734
407.604	52.88127
408.055	52.71176
408.505	52.18174
408.955	51.50331
409.406	51.63787
409.856	51.52915
410.306	51.91631
410.756	51.29396
411.206	50.75744
411.656	50.98813
412.106	50.41811
412.556	49.49701
413.006	50.75541
413.456	50.26811
413.905	49.8118
414.355	49.45388
414.805	49.85105
415.254	49.30126
415.704	49.82038
416.153	49.81935
416.603	49.24717
417.052	49.104
417.502	48.77854
417.951	48.93185
418.4	48.83447
418.849	48.36479
419.298	48.0743
419.748	48.43431
420.197	48.33716
420.646	48.29868
421.094	47.69928
421.543	48.38477
421.992	47.5896
422.441	47.73248
422.89	47.36542
423.338	47.24027
423.787	46.96363
424.236	46.81964
424.684	46.91332
425.133	46.38754
425.581	46.78964
426.029	45.67392
426.478	45.59076
426.926	45.83694
427.374	46.10448
427.822	46.24471
428.27	45.90134
428.718	45.8334
429.166	45.4854
429.614	46.12699
430.062	46.09747
430.51	45.44237
430.958	45.38295
431.406	45.3144
431.853	45.19381
432.301	45.21755
432.749	44.78472
433.196	45.1658
433.644	45.07741
434.091	44.42255
434.538	44.9323
434.986	44.68085
435.433	44.51474
435.88	44.4655
436.327	44.59415
436.775	44.51002
437.222	44.26366
437.669	44.59898
438.116	44.01488
438.563	44.29251
439.009	44.06622
439.456	44.22578
439.903	44.25997
440.35	44.49766
440.796	44.07887
441.243	44.30158
441.689	44.25036
442.136	44.45579
442.582	44.14231
443.029	44.27228
443.475	43.80923
443.921	44.38003
444.368	43.72215
444.814	43.99817
445.26	44.1029
445.706	44.19791
446.152	43.83513
446.598	44.23566
447.044	44.15932
447.49	44.34622
447.936	44.08499
448.381	44.06542
448.827	44.15836
449.273	44.27891
449.718	44.00086
450.164	44.35038
450.61	44.13179
451.055	44.60267
451.5	44.51491
451.946	44.30485
452.391	44.37098
452.836	44.10318
453.282	44.71855
453.727	44.38634
454.172	44.53031
454.617	44.82036
455.062	44.65906
455.507	44.1987
455.952	44.39285
456.396	44.98095
456.841	44.86096
457.286	44.69
457.731	45.03859
458.175	45.13463
458.62	45.17052
459.064	45.12841
459.509	44.9738
459.953	45.49919
460.398	44.9845
460.842	45.32679
461.286	45.45313
461.73	45.23647
462.174	45.49141
462.619	45.39147
463.063	45.52585
463.507	45.90396
463.951	46.50939
464.394	46.15988
464.838	46.17343
465.282	46.78844
465.726	46.10701
466.17	46.56407
466.613	47.04882
467.057	47.05638
467.5	47.27544
467.944	47.61888
468.387	47.65126
468.831	47.7036
469.274	48.16351
469.717	48.47326
470.16	47.90305
470.603	48.44597
471.047	48.42437
471.49	48.71863
471.933	49.03368
472.376	49.49394
472.818	49.79507
473.261	49.84013
473.704	49.79751
474.147	50.47517
474.59	50.1237
475.032	50.28649
475.475	50.88626
475.917	50.82488
476.36	50.7943
476.802	51.10697
477.245	51.07562
477.687	51.3648
478.129	51.17188
478.571	51.61663
479.013	52.10606
479.456	51.59312
479.898	52.06129
480.34	52.68358
480.782	52.5433
481.224	52.95423
481.665	53.35738
482.107	53.49467
482.549	53.49994
482.991	53.50982
483.432	53.43927
483.874	54.09669
484.315	53.79978
484.757	53.97368
485.198	54.25887
485.64	53.94247
486.081	54.68271
486.522	54.28216
486.963	54.45006
487.405	54.58409
487.846	54.66326
488.287	54.59792
488.728	54.55333
489.169	55.32843
489.61	54.40337
490.05	54.78551
490.491	54.96694
490.932	55.45796
491.373	55.76056
491.813	55.12554
492.254	55.2167
492.694	55.19266
493.135	55.36715
493.575	55.21525
494.016	55.2837
494.456	55.46827
494.896	55.78882
495.336	55.92475
495.777	55.91953
496.217	56.12035
496.657	56.06365
497.097	56.24868
497.537	56.30892
497.977	56.80721
498.416	56.33185
498.856	56.72917
499.296	57.13535
499.736	57.20475
500.175	56.71009
500.615	56.77002
501.054	57.02191
501.494	56.96409
501.933	56.97165
502.373	56.987
502.812	57.75816
503.251	57.7199
503.69	58.03328
504.129	58.36759
504.569	58.39157
505.008	58.41887
505.447	58.88775
505.886	59.09022
506.324	59.27877
506.763	59.44119
507.202	59.91896
507.641	59.87684
508.079	60.27633
508.518	60.62079
508.957	60.32781
509.395	61.01589
509.834	61.58039
510.272	61.16152
510.71	61.63926
511.149	61.67787
511.587	61.83941
512.025	61.4646
512.463	62.03398
512.901	62.11203
513.339	62.20848
513.777	64.16878
514.215	63.15488
514.653	63.25757
515.091	63.53958
515.529	64.05716
515.966	63.99815
516.404	64.03266
516.842	64.26047
517.279	64.14307
517.717	64.35631
518.154	65.3887
518.592	65.13549
519.029	65.72282
519.466	65.76226
519.904	66.12602
520.341	66.65566
520.778	66.4702
521.215	66.81443
521.652	67.39783
522.089	67.17509
522.526	67.28233
522.963	66.9164
523.399	67.19229
523.836	67.91638
524.273	67.9199
524.71	68.45334
525.146	68.22849
525.583	68.91057
526.019	68.97005
526.456	68.82974
526.892	69.44038
527.328	69.91803
527.765	69.57566
528.201	69.89167
528.637	70.22064
529.073	70.74254
529.509	70.92117
529.945	70.70223
530.381	71.03251
530.817	70.78827
531.253	71.08378
531.689	71.72041
532.124	71.4079
532.56	72.44267
532.996	72.14187
533.431	72.58466
533.867	72.78694
534.302	72.62368
534.738	72.79265
535.173	73.44003
535.608	72.57347
536.044	73.73586
536.479	73.53217
536.914	73.75437
537.349	73.74169
537.784	73.11267
538.219	73.52716
538.654	74.00297
539.089	74.1903
539.524	74.25745
539.959	74.10936
540.393	74.18053
540.828	74.82563
541.263	74.91509
541.697	74.62785
542.132	74.83784
542.566	75.07334
543.001	74.76209
543.435	74.95603
543.869	74.99568
544.303	74.75595
544.738	74.97039
545.172	75.29963
545.606	74.89517
546.04	75.56908
546.474	75.01667
546.908	74.52651
547.342	75.03668
547.775	74.73016
548.209	74.8349
548.643	74.38388
549.077	75.1971
549.51	74.47129
549.944	74.25508
550.377	74.67198
550.811	74.15469
551.244	74.28678
551.677	74.25164
552.111	73.47282
552.544	73.56991
552.977	73.60465
553.41	73.18133
553.843	73.32698
554.276	73.09109
554.709	72.91294
555.142	73.14262
555.575	73.24967
556.008	72.84979
556.44	72.96031
556.873	71.79232
557.306	72.24166
557.738	72.35211
558.171	71.77288
558.603	71.58673
559.036	71.838
559.468	71.36371
559.9	70.99157
560.333	70.43757
560.765	70.4902
561.197	69.93279
561.629	70.35662
562.061	69.91734
562.493	69.12405
562.925	69.49371
563.357	69.2111
563.789	68.68069
564.22	68.42963
564.652	68.52609
565.084	68.18383
565.515	68.42895
565.947	68.3397
566.378	68.2578
566.81	68.02202
567.241	67.71173
567.672	67.4062
568.104	67.40792
568.535	66.98602
568.966	66.17396
569.397	66.19384
569.828	66.62751
570.259	65.56701
570.69	65.74676
571.121	65.17472
571.552	64.77956
571.983	64.49775
572.414	64.57897
572.844	63.85873
573.275	64.05816
573.705	63.67929
574.136	63.21811
574.566	63.42456
574.997	63.55076
575.427	62.94941
575.857	62.41338
576.288	61.97456
576.718	61.6412
577.148	61.7318
577.578	61.39767
578.008	60.77263
578.438	60.76801
578.868	60.68402
579.298	60.25796
579.728	60.01466
580.157	60.07787
580.587	59.83414
581.017	60.07713
581.446	58.9992
581.876	59.49662
582.305	58.5943
582.735	58.79709
583.164	58.28852
583.593	57.67876
584.023	57.55493
584.452	57.75028
584.881	57.3346
585.31	56.7485
585.739	56.35175
586.168	56.53079
586.597	56.5862
587.026	56.19991
587.455	55.92429
587.884	55.70737
588.312	55.2875
588.741	55.12182
589.17	54.81049
589.598	54.97062
590.027	55.05987
590.455	54.69761
590.884	54.6997
591.312	54.13008
591.74	53.85154
592.168	53.94094
592.597	53.82178
593.025	53.46491
593.453	53.29522
593.881	52.90953
594.309	52.94042
594.737	52.35685
595.165	52.17582
595.592	52.02269
596.02	51.65927
596.448	52.0771
596.875	51.23399
597.303	50.9263
597.73	50.83538
598.158	51.13839
598.585	50.87231
599.013	50.66503
599.44	50.53238
599.867	50.32393
600.294	50.40534
600.722	49.91236
601.149	49.79395
601.576	49.73351
602.003	49.50469
602.43	49.48488
602.856	49.16361
603.283	48.95533
603.71	49.12981
604.137	48.85124
604.563	48.90034
604.99	48.72086
605.416	48.51533
605.843	47.97979
606.269	47.93633
606.696	47.82336
607.122	47.52527
607.548	47.22405
607.975	47.14785
608.401	47.2006
608.827	46.8597
609.253	46.80829
609.679	46.77846
610.105	46.7458
610.531	46.40371
610.956	46.34722
611.382	46.45897
611.808	46.59151
612.234	46.10739
612.659	45.74554
613.085	46.28592
613.51	45.97077
613.936	45.58477
614.361	46.06813
614.786	45.91895
615.212	45.6602
615.637	45.48746
616.062	45.79246
616.487	45.62602
616.912	45.68684
617.337	45.77886
617.762	45.59894
618.187	45.36616
618.612	44.63541
619.037	45.23462
619.461	45.02683
619.886	44.84182
620.311	44.97204
620.735	44.74768
621.16	44.64999
621.584	44.59053
622.008	44.51561
622.433	44.65611
622.857	44.33468
623.281	44.3948
623.705	44.9445
624.13	44.68886
624.554	44.60962
624.978	44.45133
625.402	44.51236
625.826	44.65032
626.249	44.59533
626.673	44.6069
627.097	44.56598
627.521	44.74899
627.944	45.01634
628.368	44.67554
628.791	44.3721
629.215	44.25548
629.638	44.5652
630.061	44.95516
630.485	44.85066
630.908	44.82836
631.331	44.47904
631.754	44.43236
632.177	44.69947
632.6	44.64175
633.023	44.82897
633.446	44.34532
633.869	45.29312
634.292	45.18091
634.715	45.67504
635.137	44.80446
635.56	44.96207
635.982	45.47088
636.405	45.4141
636.827	45.5951
637.25	45.33633
637.672	45.42912
638.094	45.42966
638.517	45.5825
638.939	46.0237
639.361	46.13548
639.783	45.68263
640.205	45.94927
640.627	46.31067
641.049	46.00326
641.471	45.75188
641.893	46.53573
642.314	46.28697
642.736	46.7351
643.158	46.63498
643.579	46.79839
644.001	46.45412
644.422	47.00434
644.844	47.08821
645.265	47.1508
645.686	47.50513
646.107	47.6003
646.529	47.47538
646.95	48.28778
647.371	48.51166
647.792	48.01374
648.213	48.83718
648.634	48.5089
649.055	49.0937
649.475	49.71219
649.896	49.29299
650.317	49.88352
650.737	48.86549
651.158	49.5608
651.578	49.77845
651.999	50.14046
652.419	50.0769
652.84	50.41978
653.26	50.826
653.68	51.06429
654.1	51.0241
654.521	51.6924
654.941	51.46591
655.361	51.56296
655.781	51.70172
656.2	51.86437
656.62	51.62541
657.04	52.11847
657.46	52.03007
657.879	52.43115
658.299	52.55954
658.719	52.67299
659.138	52.42211
659.558	53.24077
659.977	52.89425
660.396	53.61622
660.816	53.50771
661.235	53.32898
661.654	54.13961
662.073	54.2432
662.492	54.26328
662.911	54.73933
663.33	54.33308
663.749	54.40843
664.168	54.72473
664.587	54.6981
665.006	54.53348
665.424	55.36148
665.843	55.24643
666.261	55.43879
666.68	55.66279
667.098	55.8644
667.517	56.22859
667.935	55.72477
668.353	55.71286
668.772	55.15221
669.19	55.85961
669.608	56.03312
670.026	56.25597
670.444	56.80017
670.862	56.12488
671.28	56.65057
671.698	57.02059
672.115	56.73899
672.533	57.03701
672.951	56.91795
673.368	56.95609
673.786	56.89918
674.203	56.4918
674.621	56.73428
675.038	56.6341
675.456	57.32085
675.873	57.02221
676.29	56.94247
676.707	57.2015
677.124	57.44987
677.541	57.13432
677.958	56.90284
678.375	57.62409
678.792	57.05249
679.209	56.9827
679.626	57.02388
680.043	57.21363
680.459	57.03954
680.876	57.34029
681.292	57.49644
681.709	57.04195
682.125	56.9958
682.542	57.13676
682.958	56.79789
683.374	56.64039
683.79	56.6666
684.207	56.93642
684.623	56.59559
685.039	56.46495
685.455	56.84641
685.871	56.32251
686.286	56.6964
686.702	56.40043
687.118	56.73628
687.534	56.64365
687.949	56.3074
688.365	55.23325
688.781	55.69178
689.196	55.51864
689.611	55.34943
690.027	55.2404
690.442	54.36045
690.857	55.22696
691.273	54.63807
691.688	54.6033
692.103	54.56503
692.518	53.99285
692.933	54.24086
693.348	54.27382
693.763	53.73171
694.177	53.32562
694.592	53.34721
695.007	52.61713
695.421	53.08018
695.836	52.31763
696.25	52.09468
696.665	51.94051
697.079	51.69327
697.494	51.96444
697.908	51.31157
698.322	51.20364
698.736	50.73592
699.151	50.82987
699.565	50.7654
699.979	51.16777
700.393	50.52405
700.806	50.23377
701.22	49.90227
701.634	49.58629
702.048	49.73803
702.461	49.41805
702.875	49.59056
703.289	49.02352
703.702	49.35229
704.116	48.5484
704.529	49.29455
704.942	48.02494
705.356	48.84403
705.769	48.00399
706.182	48.47576
706.595	47.93868
707.008	47.40152
707.421	47.30124
707.834	46.35717
708.247	46.46995
708.66	46.41869
709.072	46.11433
709.485	45.49933
709.898	45.48478
710.31	45.06401
710.723	45.34734
711.135	44.63101
711.548	44.46184
711.96	43.93808
712.373	43.8785
712.785	43.26046
713.197	43.31468
713.609	42.57858
714.021	42.39093
714.433	41.73949
714.845	41.66963
715.257	41.56873
715.669	41.51428
716.081	41.0181
716.493	40.61079
716.904	40.59661
717.316	40.21626
717.727	40.62278
718.139	39.9345
718.55	39.66997
718.962	39.68913
719.373	39.40581
719.784	38.87716
720.196	38.41242
720.607	38.46527
721.018	38.28527
721.429	38.01865
721.84	38.16455
722.251	37.61192
722.662	37.38865
723.073	37.01056
723.483	37.09908
723.894	36.37157
724.305	36.31887
724.715	35.63969
725.126	35.58089
725.536	35.62293
725.947	34.91377
726.357	35.1533
726.768	34.63284
727.178	34.41863
727.588	34.21914
727.998	33.76041
728.408	33.39261
728.818	33.38435
729.228	33.57769
729.638	33.32465
730.048	33.41377
730.458	33.29387
730.868	32.46555
731.277	32.50854
731.687	32.06162
732.097	32.34467
732.506	31.87916
732.916	31.81255
733.325	31.64835
733.734	32.05546
734.144	31.24362
734.553	31.36152
734.962	30.27644
735.371	30.65459
735.78	30.34552
736.189	30.57754
736.598	29.70995
737.007	30.45706
737.416	29.56122
737.825	30.2341
738.233	29.59226
738.642	29.81076
739.051	29.41145
739.459	29.43935
739.868	29.16707
740.276	28.98623
740.684	28.64739
741.093	28.67896
741.501	28.37947
741.909	28.63542
742.317	28.56854
742.725	28.11976
743.133	28.23594
743.541	27.49534
743.949	28.18036
744.357	27.45156
744.765	27.85957
745.173	27.42736
745.58	28.13211
745.988	27.10515
746.396	27.46722
746.803	27.03851
747.211	27.19864
747.618	27.13128
748.025	26.83025
748.433	26.85846
748.84	26.41149
749.247	26.43298
749.654	26.29053
750.061	26.48689
750.468	25.6626
750.875	26.11761
751.282	25.54892
751.689	26.10108
752.096	25.65005
752.502	25.75213
752.909	25.57857
753.316	25.29218
753.722	25.69688
754.129	25.29272
754.535	25.56698
754.941	25.09687
755.348	25.70411
755.754	24.94528
756.16	25.10886
756.566	24.46935
756.972	24.96757
757.378	24.65564
757.784	24.60331
758.19	24.91162
758.596	24.29888
759.002	24.76074
759.408	24.25189
759.813	24.56296
760.219	24.40043
760.624	24.4883
761.03	24.01705
761.435	24.14508
761.841	23.82246
762.246	23.63381
762.651	24.22418
763.057	23.60091
763.462	24.74792
763.867	24.26317
764.272	24.71672
764.677	24.74711
765.082	24.40741
765.487	24.43026
765.892	24.26048
766.296	24.30785
766.701	23.61373
767.106	24.05563
767.51	23.69983
767.915	24.03385
768.319	23.80421
768.724	24.02072
769.128	23.78029
769.532	23.51831
769.936	23.8541
770.341	23.04129
770.745	23.91273
771.149	23.321
771.553	23.19305
771.957	23.34037
772.361	23.21469
772.764	23.92838
773.168	23.4942
773.572	23.51462
773.976	23.00237
774.379	23.26445
774.783	23.21668
775.186	22.67704
775.59	23.34369
775.993	22.69387
776.396	23.37398
776.8	22.85348
777.203	22.87444
777.606	22.85316
778.009	22.73453
778.412	23.17752
778.815	22.79651
779.218	22.99536
779.621	22.89427
780.023	23.06258
780.426	22.88796
780.829	22.75288
781.231	23.36316
781.634	22.80586
782.036	23.00617
782.439	23.04465
782.841	22.72988
783.244	23.33047
783.646	22.45938
784.048	22.91674
784.45	22.7489
784.852	22.87445
785.254	22.73446
785.656	22.58979
786.058	22.96586
786.46	22.43551
786.862	22.36173
787.264	22.50951
787.665	22.44164
788.067	22.73123
788.468	22.38289
788.87	22.98648
789.271	22.55304
789.673	22.9419
790.074	22.88684
790.475	22.59914
790.877	23.15049
791.278	22.44524
791.679	22.87314
792.08	22.29239
792.481	22.36562
792.882	22.66649
793.283	22.258
793.683	22.82753
794.084	22.28846
794.485	22.52018
794.886	22.67033
795.286	21.83593
795.687	22.85173
796.087	22.11999
796.487	22.51145
796.888	22.53887
797.288	22.31319
797.688	22.70841
798.088	21.99864
798.489	22.9057
798.889	22.76761
799.289	22.2873
799.689	22.84762
800.088	22.56004
800.488	22.23779
800.888	22.71462
801.288	22.17916
801.687	23.00123
802.087	22.71118
802.486	22.61144
802.886	22.91535
803.285	22.34428
803.685	23.43335
804.084	22.43365
804.483	22.60812
804.882	23.06035
805.281	22.69079
805.68	23.22466
806.079	22.44342
806.478	23.04754
806.877	23.30102
807.276	22.51606
807.675	23.40633
808.074	22.62816
808.472	22.88872
808.871	23.23263
809.269	22.60266
809.668	22.69502
810.066	23.35417
810.465	22.69368
810.863	22.99022
811.261	22.9538
811.659	23.18508
812.057	23.67423
812.455	22.76956
812.853	22.88512
813.251	22.80648
813.649	22.69009
814.047	23.0709
814.445	23.05956
814.843	22.81454
815.24	23.22225
815.638	22.67845
816.035	22.83784
816.433	22.55091
816.83	22.42006
817.228	23.04005
817.625	22.51962
818.022	22.8061
818.419	22.84625
818.816	22.93336
819.213	23.03476
819.61	22.57574
820.007	23.50652
820.404	23.39618
820.801	22.94922
821.198	23.74253
821.595	23.56683
821.991	23.5579
822.388	24.26941
822.784	24.1792
823.181	24.55828
823.577	24.93978
823.974	24.61528
824.37	24.82888
824.766	24.71105
825.162	24.42317
825.558	24.36576
825.954	24.00604
826.35	24.1923
826.746	24.68018
827.142	24.15078
827.538	24.78158
827.934	24.77944
828.33	24.42416
828.725	24.5578
829.121	24.39435
829.516	24.07553
829.912	24.10896
830.307	23.81292
830.703	23.82136
831.098	23.82356
831.493	23.19912
831.888	23.91419
832.283	23.50515
832.678	23.40892
833.073	23.67186
833.468	23.64895
833.863	23.97788
834.258	24.34859
834.653	23.80077
835.048	24.35175
835.442	24.63437
835.837	24.55438
836.231	24.27451
836.626	24.09532
837.02	24.66557
837.415	24.15406
837.809	23.90161
838.203	24.00601
838.597	24.11076
838.991	22.95177
839.385	23.37659
839.779	23.78518
840.173	23.95486
840.567	24.10278
840.961	24.32593
841.355	23.65471
841.748	24.51312
842.142	24.05085
842.536	23.8094
842.929	25.12741
843.323	24.74276
843.716	24.45078
844.109	25.16236
844.503	24.7782
844.896	24.09697
845.289	25.19064
845.682	24.78258
846.075	24.26247
846.468	25.22303
846.861	24.96531
847.254	25.30436
847.647	24.85819
848.04	24.68373
848.432	24.60046
848.825	24.60007
849.217	23.93518
849.61	25.18761
850.002	24.83934
850.395	24.75978
850.787	25.56959
851.179	24.30298
851.572	25.07122
851.964	25.87951
852.356	24.77176
852.748	24.63486
853.14	25.18549
853.532	25.22091
853.924	24.49347
854.315	25.41053
854.707	24.15936
855.099	24.01496
855.491	24.77749
855.882	24.46324
856.274	24.32812
856.665	24.51314
857.056	24.03825
857.448	24.79912
857.839	25.32467
858.23	25.36975
858.621	25.31847
859.012	25.15939
859.403	24.56992
859.794	25.55053
860.185	25.47467
860.576	24.40283
860.967	25.16894
861.358	24.9856
861.748	24.49729
862.139	25.74164
862.529	24.84758
862.92	24.45453
863.31	25.44429
863.701	24.98564
864.091	24.91887
864.481	25.59979
864.872	25.78193
865.262	24.60188
865.652	24.84141
866.042	25.23602
866.432	23.91775
866.822	24.63479
867.211	25.00081
867.601	24.98054
867.991	25.29018
868.381	25.05352
868.77	24.5991
869.16	25.0052
869.549	24.47557
869.939	24.24999
870.328	24.40748
870.717	25.67178
871.106	24.65447
871.496	24.63377
871.885	25.13895
872.274	24.13244
872.663	25.00241
873.052	25.38061
873.441	24.26043
873.829	24.32872
874.218	25.42489
874.607	23.88738
874.996	24.56957
875.384	25.05018
875.773	24.60359
876.161	24.84009
876.549	24.67415
876.938	24.44525
877.326	24.50956
877.714	24.76091
878.102	24.25518
878.491	24.16866
878.879	24.62539
879.267	24.11373
879.655	24.32371
880.042	24.76798
880.43	24.75617
880.818	24.24873
881.206	25.1505
881.593	25.36662
881.981	25.0846
882.368	25.53865
882.756	25.53882
883.143	25.29068
883.53	25.51158
883.918	25.41901
884.305	24.66083
884.692	24.86859
885.079	25.38016
885.466	25.05835
885.853	24.81029
886.24	25.03136
886.627	24.51421
887.014	24.22155
887.4	24.55623
887.787	24.40814
888.174	24.25215
888.56	25.16393
888.947	24.76272
889.333	24.45334
889.719	24.21182
890.106	24.39253
890.492	23.5426
890.878	24.02497
891.264	24.77865
891.65	23.8507
892.036	23.70609
892.422	24.39729
892.808	23.3614
893.194	23.31713
893.58	24.3039
893.965	24.64618
894.351	23.81169
894.736	24.35649
895.122	24.26165
895.507	23.58843
895.893	24.31323
896.278	24.13175
896.663	24.49734
897.049	24.70493
897.434	24.12729
897.819	24.25485
898.204	23.89899
898.589	24.09213
898.974	24.00283
899.359	23.44413
899.743	23.39171
900.128	24.61028
900.513	23.54846
900.897	23.98861
901.282	24.00634
901.667	23.89479
902.051	23.36928
902.435	23.52884
902.82	23.59105
903.204	23.10221
903.588	23.63124
903.972	24.00655
904.356	23.31081
904.74	24.09083
905.124	24.02107
905.508	24.27042
905.892	24.24447
906.276	24.6934
906.659	23.98823
907.043	24.06489
907.427	24.29584
907.81	25.14546
908.194	23.99292
908.577	23.73482
908.96	24.2218
909.344	23.91753
909.727	24.6375
910.11	24.09252
910.493	24.91572
910.876	23.85449
911.259	24.24388
911.642	24.0215
912.025	23.31418
912.408	23.73367
912.79	23.80486
913.173	23.03805
913.556	23.09771
913.938	23.68476
914.321	24.05541
914.703	23.64345
915.086	23.83088
915.468	23.89192
915.85	23.52501
916.232	23.83633
916.614	24.02603
916.996	24.18296
917.378	23.35691
917.76	23.70728
918.142	24.00414
918.524	23.53668
918.906	23.46045
919.288	23.72851
919.669	23.8526
920.051	24.33701
920.432	23.87743
920.814	24.15438
921.195	23.48578
921.577	23.16291
921.958	23.46757
922.339	24.217
922.72	22.70382
923.101	23.7289
923.482	24.41713
923.863	23.12156
924.244	22.94996
924.625	23.55948
925.006	23.72297
925.387	22.81812
925.767	23.52281
926.148	23.56552
926.528	23.54199
926.909	23.71984
927.289	23.63161
927.67	24.10392
928.05	23.38804
928.43	23.72174
928.81	23.49318
929.191	22.85487
929.571	22.66872
929.951	23.21034
930.331	23.50477
930.71	24.40846
931.09	24.61481
931.47	24.24926
931.85	23.43657
932.229	22.15073
932.609	23.49419
932.988	23.66841
933.368	23.24166
933.747	22.93588
934.127	23.44565
934.506	23.30219
934.885	23.00972
935.264	23.55266
935.643	23.36488
936.022	23.25997
936.401	23.35835
936.78	23.98415
937.159	23.89164
937.538	21.62158
937.916	22.79839
938.295	23.25675
938.674	22.69257
939.052	23.75863
939.431	23.12598
939.809	23.74928
940.187	22.44459
940.566	23.07113
940.944	22.24879
941.322	23.20605
941.7	22.74559
942.078	21.70258
942.456	23.82438
942.834	23.07162
943.212	21.38865
943.59	22.57996
943.968	22.82708
944.345	21.73234
944.723	22.06752
945.1	22.73173
945.478	22.08232
945.855	21.89131
946.233	21.48416
946.61	22.99781
946.987	20.38709
947.365	22.58053
947.742	20.45597
948.119	23.0973
948.496	21.14027
948.873	21.34523
949.25	21.61113
949.626	21.57988
950.003	20.67145
950.38	21.09494
950.756	20.44665
951.133	21.68283
951.51	20.88067
951.886	20.7041
952.262	21.54437
952.639	20.66939
953.015	20.04092
953.391	19.87914
953.767	21.63568
954.143	20.33703
954.519	20.34955
954.895	19.64866
955.271	21.32014
955.647	18.11516
956.023	19.48179
956.399	21.66621
956.774	19.76569
957.15	19.36773
957.525	18.838
957.901	19.22478
958.276	19.54352
958.652	19.01631
959.027	18.93766
959.402	19.59348
959.777	17.24432
960.152	21.71211
960.527	19.7437
960.902	20.03076
961.277	21.13609
961.652	19.53778
962.027	21.40128
962.402	20.12973
962.776	21.76789
963.151	17.46693
963.525	19.47764
963.9	20.17984
964.274	21.67954
964.649	19.05948
965.023	19.74169
965.397	21.75017
965.771	20.3674
966.146	19.00464
966.52	20.00613
966.894	19.96968
967.268	20.10414
967.641	20.96351
968.015	18.67032
968.389	20.13971
968.763	19.45458
969.136	18.58548
969.51	21.57061
969.883	19.03338
970.257	21.59973
970.63	20.14712
971.003	21.30162
971.377	20.56672
971.75	18.5269
972.123	21.26616
972.496	21.71702
972.869	19.35224
973.242	21.91121
973.615	19.56181
973.988	21.75324
974.36	19.22928
974.733	18.62985
975.106	18.84099
975.478	20.11015
975.851	20.36494
976.223	18.73093
976.596	18.60626
976.968	20.42833
977.34	20.34376
977.712	19.20433
978.085	17.82378
978.457	19.10045
978.829	20.24412
979.201	19.5296
979.573	19.54542
979.944	20.08159
980.316	20.02157
980.688	20.05443
981.059	19.53196
981.431	19.62912
981.803	20.16603
982.174	19.51206
982.545	18.72092
982.917	20.34016
983.288	19.91667
983.659	19.37804
984.03	18.61718
984.401	19.78754
984.772	19.20121
985.143	19.55117
985.514	22.12681
985.885	19.48115
986.256	19.19631
986.627	19.17154
986.997	19.06439
987.368	19.13122
987.738	19.48061
988.109	18.15785
988.479	18.41019
988.85	18.69491
989.22	19.61494
989.59	18.26811
989.96	18.53425
990.33	18.67839
990.7	18.20844
991.07	19.01571
991.44	18.71393
991.81	17.76982
992.18	19.66468
992.549	20.13108
992.919	20.13694
993.289	18.42981
993.658	19.01273
994.028	20.15008
994.397	19.65996
994.766	19.41835
995.136	19.97001
995.505	18.41396
995.874	21.80694
996.243	18.10096
996.612	18.68123
996.981	16.47401
997.35	19.14987
997.719	19.75171
998.088	19.84448
998.456	20.81385
998.825	20.50846
999.194	20.16498
999.562	19.3294
999.931	20.15615
1000.299	17.66423
1000.667	18.68724
1001.036	19.69823
1001.404	16.91837
1001.772	19.43933
1002.14	18.5836
1002.508	21.87146
1002.876	18.31175
1003.244	22.88903
1003.612	15.36836
1003.98	23.87658
1004.347	18.99394
1004.715	17.13288
1005.083	17.36293
1005.45	17.55801
1005.818	17.7411
1006.185	17.56186
1006.552	17.53777
1006.92	18.13945
1007.287	17.61447
1007.654	17.58896
1008.021	18.25187
1008.388	18.88647
1008.755	18.7661
1009.122	18.26072
1009.489	16.43637
1009.856	18.41146
1010.222	17.75125
1010.589	16.33286
1010.956	19.07792
1011.322	17.80532
1011.689	18.3845
1012.055	13.11422
1012.421	18.76785
1012.788	16.62738
1013.154	15.19139
1013.52	19.42588
1013.886	19.36243
1014.252	19.5225
1014.618	21.68445
1014.984	19.77859
1015.35	16.53729
1015.716	17.31336
1016.081	21.89453
1016.447	16.70475
1016.813	20.77495
1017.178	16.18722
1017.544	16.2562
1017.909	19.32402
1018.274	19.58544
1018.64	20.31734
1019.005	14.65054
1019.37	15.79059
1019.735	19.28913
1020.1	18.90238
1020.465	20.94164
1020.83	20.0036
1021.195	16.08298
1021.56	20.84944
1021.924	19.50585
1022.289	8.8218
1022.654	16.08664
1023.018	16.0291
1023.383	12.99448
1023.747	20.99105
1024.111	16.56072
1024.476	21.89067
1024.84	16.59194
1025.204	19.38804
1025.568	8.84005
1025.932	16.30468
1026.296	14.16247
1026.66	18.92615
1027.024	20.77446
1027.387	11.7043
1027.751	26.17295
1028.115	33.79311
1028.478	16.15127
1028.842	25.07921
1029.205	9.72671
1029.569	18.72265
1029.932	19.56716
1030.295	15.02529
1030.659	4.26816
1031.022	8.94129
1031.385	20.73206
1031.748	18.34041
1032.111	13.12392
1032.474	8.84807
1032.836	14.64339
1033.199	4.97027
1033.562	6.77048
1033.924	11.89696
1034.287	20.14064
1034.65	14.68878
1035.012	8.05909
1035.374	28.29471
1035.737	11.55373
1036.099	18.7216
1036.461	21.2002
1036.823	10.3683
1037.185	20.48656
1037.547	13.19448
1037.909	8.71773
1038.271	24.17654
1038.633	7.87254
1038.995	21.55184
1039.356	12.15908
1039.718	26.79289
1040.08	23.95043
1040.441	23.74881
1040.803	7.68831
1041.164	7.99601
1041.525	15.8936
1041.886	-0.49731
1042.248	25.55393
1042.609	9.05349
1042.97	15.00969
1043.331	12.95012
1043.692	13.78766
1044.053	20.34176
1044.413	6.85172
1044.774	16.41065
1045.135	9.86716
1045.495	19.99213
1045.856	9.7637
1046.216	-6.27747
1046.577	22.06453
1046.937	11.04317
1047.298	8.44745
