Data from 1017water_Reflection__13__21-01-36-286.txt Node

Date: Fri Oct 17 21:01:36 AST 2025
User: lin
Spectrometer: SR600411
Trigger mode: 0
Integration Time (sec): 5.846600E-2
Scans to average: 5
Nonlinearity correction enabled: true
Boxcar width: 0
Storing dark spectrum: false
XAxis mode: Wavelengths
Number of Pixels in Spectrum: 2048
>>>>>Begin Spectral Data<<<<<
187.982	57.756
188.456	61.76727
188.93	48.21617
189.403	46.88228
189.877	37.32716
190.351	54.95319
190.825	41.55638
191.298	29.7086
191.772	48.77807
192.246	44.48741
192.719	38.4518
193.193	40.60043
193.666	50.82147
194.139	34.75349
194.613	56.67265
195.086	50.15246
195.559	41.69747
196.033	47.64052
196.506	47.42969
196.979	51.436
197.452	50.09733
197.925	44.7817
198.398	47.45527
198.871	60.51197
199.344	51.99435
199.816	53.69265
200.289	48.94217
200.762	43.84579
201.235	44.2504
201.707	45.27264
202.18	34.79851
202.652	48.82871
203.125	43.81927
203.597	23.48016
204.07	29.04299
204.542	19.55949
205.014	36.22242
205.486	36.03868
205.959	53.83785
206.431	32.69749
206.903	33.75102
207.375	26.46536
207.847	29.40618
208.319	25.40758
208.791	0
209.263	16.02705
209.734	33.08744
210.206	45.44915
210.678	30.39921
211.15	9.52166
211.621	7.53224
212.093	33.87894
212.564	49.61185
213.036	51.32185
213.507	39.85785
213.979	28.40555
214.45	59.58209
214.921	9.99822
215.392	26.22484
215.864	34.18283
216.335	51.10666
216.806	49.99496
217.277	15.59349
217.748	45.38728
218.219	32.3764
218.69	39.63697
219.161	-46.96069
219.631	10.57498
220.102	48.05564
220.573	39.05648
221.043	16.66453
221.514	33.05909
221.985	-19.18744
222.455	55.76416
222.926	39.08573
223.396	39.05647
223.866	46.31111
224.337	79.12667
224.807	37.64311
225.277	23.94111
225.747	23.92741
226.217	32.25136
226.687	28.25718
227.157	26.27901
227.627	-11.53648
228.097	41.09649
228.567	60.17163
229.037	41.97842
229.507	37.94982
229.977	-6.59214
230.446	-9.58752
230.916	-3.19088
231.386	64.20621
231.855	27.13738
232.325	22.68494
232.794	34.74047
233.263	50.75105
233.733	31.42409
234.202	27.7318
234.671	33.90794
235.14	29.7814
235.61	46.66076
236.079	45.74007
236.548	49.99456
237.017	13.51095
237.486	23.68014
237.955	12.36905
238.424	5.61704
238.892	60.18929
239.361	32.58672
239.83	42.67896
240.299	18.17858
240.767	19.0457
241.236	55.5516
241.704	-4.08081
242.173	20.5103
242.641	27.44696
243.109	58.94881
243.578	54.68123
244.046	-10.7677
244.514	22.12004
244.982	38.99529
245.451	7.5256
245.919	-1.05243
246.387	44.02331
246.855	68.02089
247.323	12.22031
247.791	-2.29845
248.258	60.60138
248.726	39.32165
249.194	33.71713
249.662	14.4558
250.129	5.40428
250.597	33.32845
251.064	10.06945
251.532	-24.46243
251.999	-15.90588
252.467	59.78921
252.934	28.67695
253.401	19.38473
253.869	31.30892
254.336	32.5544
254.803	18.84877
255.27	0
255.737	50.92059
256.204	40.84168
256.671	45.5396
257.138	46.35822
257.605	56.1348
258.072	19.22598
258.539	41.76835
259.005	11.10865
259.472	37.90137
259.939	-1.23437
260.405	5.49357
260.872	31.42559
261.338	40.86407
261.805	30.29752
262.271	50.34258
262.737	11.82604
263.203	2.63119
263.67	19.2627
264.136	10.94626
264.602	35.29028
265.068	4.65041
265.534	17.79319
266	28.56691
266.466	23.68149
266.932	46.7153
267.398	50.58403
267.864	-1.76951
268.329	32.05542
268.795	-36.10412
269.261	32.0344
269.726	29.6988
270.192	25.83932
270.657	18.66441
271.123	45.27782
271.588	49.99743
272.053	55.54895
272.519	-12.11944
272.984	22.3372
273.449	-2.04041
273.914	-19.7493
274.379	31.94134
274.844	12.72485
275.309	38.23053
275.774	66.11034
276.239	9.57286
276.704	83.33136
277.169	0
277.634	48.97474
278.098	-4.54483
278.563	42.46222
279.028	8.69457
279.492	47.56773
279.957	9.99875
280.421	58.61513
280.886	10.75092
281.35	49.99584
281.814	-18.68689
282.279	-28.37305
282.743	25.99619
283.207	1.04147
283.671	12.19338
284.135	39.21087
284.599	2.85676
285.063	26.52684
285.527	49.60001
285.991	68.65386
286.455	20.87615
286.919	35.43946
287.382	27.88048
287.846	46.0813
288.31	22.3372
288.773	28.23902
289.237	48.29925
289.7	33.07688
290.164	10.8094
290.627	63.43659
291.09	59.76597
291.554	-4.91741
292.017	61.16021
292.48	-47.87737
292.943	108.77301
293.406	32.70562
293.869	-1.13616
294.332	-12.81828
294.795	26.80036
295.258	41.66263
295.721	46.99507
296.184	-5.45392
296.646	28.56578
297.109	34.87986
297.572	22.46884
298.034	39.05647
298.497	30.8471
298.959	23.40092
299.422	15.06664
299.884	13.22039
300.346	2.43864
300.809	8.40959
301.271	34.11387
301.733	29.90968
302.195	-54.3402
302.657	33.99556
303.119	68.67116
303.581	55.69235
304.043	44.65515
304.505	44.82333
304.967	29.99709
305.429	38.77091
305.891	6.66556
306.352	49.99574
306.814	-1.40825
307.275	21.50227
307.737	15.149
308.198	28.25718
308.66	2.53126
309.121	0
309.583	21.05013
310.044	35.37873
310.505	40.65499
310.966	4.83814
311.428	69.04407
311.889	21.92596
312.35	45.91356
312.811	50.5574
313.272	-5.20729
313.733	15.99734
314.193	45.75666
314.654	46.70859
315.115	-29.87838
315.576	39.78054
316.036	35.58787
316.497	40.62042
316.957	19.46552
317.418	13.859
317.878	32.49653
318.339	32.14044
318.799	26.16414
319.259	51.21546
319.72	8.98732
320.18	19.14606
320.64	33.99556
321.1	15.3816
321.56	13.27176
322.02	25.52838
322.48	36.70523
322.94	13.33093
323.4	72.33671
323.86	5.63306
324.319	62.96172
324.779	49.39348
325.239	-7.27103
325.698	22.21884
326.158	69.22693
326.617	95.17997
327.077	40.56098
327.536	75.30566
327.996	23.4659
328.455	52.93783
328.914	-21.32949
329.373	14.5441
329.832	52.03597
330.292	3.7969
330.751	24.52442
331.21	20.33709
331.668	23.96258
332.127	30.57343
332.586	53.65249
333.045	24.77459
333.504	-1.85165
333.962	61.60191
334.421	87.01126
334.88	16.89944
335.338	13.79174
335.797	32.6067
336.255	40.50256
336.714	35.47825
337.172	11.10935
337.63	25.87913
338.088	19.2627
338.547	29.24095
339.005	53.67954
339.463	35.71047
339.921	-30.9047
340.379	64.04089
340.837	0
341.295	13.48109
341.753	27.07959
342.21	44.86798
342.668	36.69223
343.126	57.83822
343.584	34.37072
344.041	62.88212
344.499	24.72776
344.956	11.4925
345.414	58.43786
345.871	11.96338
346.328	30.55254
346.786	25.85767
347.243	33.74646
347.7	-41.24079
348.157	13.09335
348.614	-4.50347
349.071	14.99899
349.528	30.67811
349.985	21.73449
350.442	4.76115
350.899	44.31389
351.356	9.9984
351.812	39.99573
352.269	34.14269
352.726	11.53637
353.182	-16.17394
353.639	20.15094
354.095	38.19809
354.552	37.61908
355.008	19.40091
355.465	44.90949
355.921	46.74945
356.377	14.94035
356.833	48.10798
357.289	45.75692
357.745	34.57465
358.201	28.70879
358.657	47.13595
359.113	-0.87699
359.569	21.89318
360.025	19.12692
360.481	41.27084
360.937	29.5532
361.392	45.34041
361.848	25.70637
362.303	38.24808
362.759	39.82576
363.214	31.07169
363.67	41.49927
364.125	34.36502
364.581	33.07374
365.036	48.02415
365.491	41.80499
365.946	51.57719
366.401	47.79652
366.856	50.22893
367.311	42.67945
367.766	50.99582
368.221	42.86097
368.676	43.94299
369.131	42.14152
369.586	44.84521
370.041	51.11437
370.495	52.05219
370.95	49.00113
371.404	52.59427
371.859	53.14251
372.313	42.46029
372.768	49.0487
373.222	50.47395
373.676	50.53293
374.131	50.58914
374.585	54.18827
375.039	50.7225
375.493	57.2661
375.947	49.26324
376.401	54.38251
376.855	53.55289
377.309	51.15376
377.763	50.4951
378.217	52.12621
378.67	50.80832
379.124	54.35344
379.578	50.20614
380.031	54.11718
380.485	52.99749
380.938	53.6404
381.392	53.83873
381.845	52.26188
382.299	50.62325
382.752	52.6978
383.205	53.11158
383.658	52.09944
384.111	52.61639
384.564	52.86527
385.018	51.84014
385.471	53.12723
385.923	53.90793
386.376	53.4734
386.829	52.55195
387.282	52.78216
387.735	53.52701
388.187	53.93777
388.64	53.34521
389.093	53.55331
389.545	53.14704
389.998	53.13552
390.45	54.0645
390.902	53.96446
391.355	53.56709
391.807	54.43709
392.259	53.4664
392.711	53.32247
393.163	53.49184
393.615	53.66398
394.068	54.04454
394.519	53.84075
394.971	54.30791
395.423	53.83585
395.875	54.50752
396.327	53.72681
396.779	52.81148
397.23	53.07528
397.682	53.99146
398.133	54.5955
398.585	54.02477
399.036	53.819
399.488	54.15882
399.939	53.72589
400.39	53.94792
400.842	53.70102
401.293	54.19115
401.744	53.43001
402.195	53.03356
402.646	52.89737
403.097	52.41789
403.548	52.59597
403.999	52.85826
404.45	52.79177
404.9	52.46195
405.351	52.73846
405.802	52.4985
406.253	52.65075
406.703	52.62468
407.154	52.19012
407.604	52.66383
408.055	51.86784
408.505	52.74822
408.955	51.57467
409.406	51.42621
409.856	51.33974
410.306	51.11679
410.756	51.04898
411.206	51.19217
411.656	51.00883
412.106	50.56117
412.556	50.29231
413.006	50.50291
413.456	50.02012
413.905	49.7613
414.355	49.73977
414.805	49.88892
415.254	49.40169
415.704	50.00112
416.153	49.67047
416.603	49.82237
417.052	49.14906
417.502	48.44896
417.951	48.74624
418.4	48.6729
418.849	48.66683
419.298	48.51194
419.748	48.13024
420.197	48.51741
420.646	48.94008
421.094	47.70905
421.543	48.52834
421.992	47.85779
422.441	47.91923
422.89	47.22443
423.338	47.28175
423.787	47.15042
424.236	46.94565
424.684	46.73678
425.133	46.96759
425.581	46.21556
426.029	46.20135
426.478	46.35552
426.926	46.25081
427.374	46.77572
427.822	45.91184
428.27	46.13342
428.718	45.67581
429.166	46.2351
429.614	46.1116
430.062	45.51726
430.51	45.48506
430.958	45.11057
431.406	45.72059
431.853	45.27448
432.301	44.99956
432.749	45.01249
433.196	44.43584
433.644	44.83475
434.091	44.68745
434.538	44.77561
434.986	44.7115
435.433	45.01121
435.88	45.02618
436.327	44.29088
436.775	44.79053
437.222	44.22606
437.669	44.25675
438.116	44.33257
438.563	44.45667
439.009	43.7762
439.456	43.9344
439.903	44.28809
440.35	44.2284
440.796	43.93392
441.243	44.30158
441.689	44.48303
442.136	44.37497
442.582	44.35293
443.029	44.61458
443.475	43.98035
443.921	44.63199
444.368	44.00164
444.814	43.98059
445.26	44.03698
445.706	44.12276
446.152	44.18494
446.598	44.11266
447.044	44.46842
447.49	44.25903
447.936	44.21181
448.381	44.28269
448.827	44.56376
449.273	44.53379
449.718	44.01617
450.164	44.35038
450.61	44.08518
451.055	44.3523
451.5	44.2589
451.946	44.45702
452.391	44.15661
452.836	44.13422
453.282	44.54376
453.727	44.20526
454.172	44.36535
454.617	44.59672
455.062	44.7575
455.507	44.74641
455.952	44.50957
456.396	45.02757
456.841	45.10024
457.286	44.87841
457.731	45.4771
458.175	45.11819
458.62	45.14681
459.064	45.08469
459.509	45.18012
459.953	44.9487
460.398	45.12683
460.842	45.23269
461.286	45.43961
461.73	45.67623
462.174	45.60729
462.619	45.23562
463.063	45.6274
463.507	45.71548
463.951	46.19991
464.394	46.31256
464.838	45.99092
465.282	46.2789
465.726	46.43711
466.17	46.66983
466.613	47.0186
467.057	47.05086
467.5	47.69582
467.944	47.46746
468.387	47.15755
468.831	47.58092
469.274	48.02847
469.717	48.15174
470.16	48.26048
470.603	48.43277
471.047	48.48808
471.49	48.64008
471.933	49.20612
472.376	49.34355
472.818	49.5295
473.261	49.63839
473.704	49.71141
474.147	50.2917
474.59	49.84597
475.032	50.3394
475.475	50.71264
475.917	50.34657
476.36	50.69873
476.802	50.8398
477.245	51.08765
477.687	50.93705
478.129	51.40309
478.571	51.58352
479.013	51.91878
479.456	52.02832
479.898	52.05588
480.34	52.69858
480.782	52.40415
481.224	52.65562
481.665	52.78747
482.107	53.41721
482.549	53.70825
482.991	53.51849
483.432	53.84948
483.874	53.90532
484.315	53.58199
484.757	53.60747
485.198	53.95647
485.64	54.2612
486.081	54.35411
486.522	53.99119
486.963	54.54845
487.405	54.39411
487.846	54.6439
488.287	54.85829
488.728	54.57897
489.169	54.87192
489.61	54.78411
490.05	54.49347
490.491	54.7459
490.932	55.07499
491.373	54.96156
491.813	55.01684
492.254	55.23837
492.694	55.0898
493.135	55.56974
493.575	55.17086
494.016	55.7199
494.456	55.77997
494.896	55.58169
495.336	55.78662
495.777	55.89174
496.217	56.08699
496.657	56.22148
497.097	56.41555
497.537	56.41184
497.977	56.44671
498.416	56.13089
498.856	57.03159
499.296	56.97385
499.736	56.97696
500.175	56.87723
500.615	56.95894
501.054	57.17365
501.494	56.83288
501.933	57.20569
502.373	57.50241
502.812	57.64261
503.251	57.71631
503.69	57.41025
504.129	58.43635
504.569	57.71214
505.008	58.49659
505.447	58.68888
505.886	58.61505
506.324	58.88137
506.763	58.99215
507.202	59.47196
507.641	59.8607
508.079	60.33901
508.518	60.33584
508.957	60.5768
509.395	60.65425
509.834	61.02013
510.272	61.31318
510.71	61.75018
511.149	61.14594
511.587	61.76793
512.025	61.30478
512.463	61.71411
512.901	61.93599
513.339	62.22185
513.777	63.0809
514.215	63.17638
514.653	63.09844
515.091	63.59672
515.529	64.27591
515.966	63.67679
516.404	64.09043
516.842	64.39982
517.279	64.69729
517.717	64.38649
518.154	65.44743
518.592	65.12602
519.029	65.88328
519.466	66.31926
519.904	65.89131
520.341	66.40301
520.778	66.51144
521.215	66.54975
521.652	67.55566
522.089	67.10948
522.526	67.34639
522.963	66.73792
523.399	67.22862
523.836	68.36255
524.273	67.91535
524.71	68.14703
525.146	68.52075
525.583	68.91362
526.019	69.01705
526.456	68.92324
526.892	69.09862
527.328	69.33672
527.765	69.30017
528.201	69.86224
528.637	70.10558
529.073	70.74254
529.509	70.71363
529.945	70.62316
530.381	70.86949
530.817	70.99809
531.253	71.16192
531.689	71.66677
532.124	71.37331
532.56	72.01831
532.996	72.37273
533.431	72.23966
533.867	72.65644
534.302	72.70459
534.738	72.62571
535.173	73.27477
535.608	72.89599
536.044	73.71791
536.479	73.8075
536.914	73.65588
537.349	73.30488
537.784	74.34397
538.219	73.79623
538.654	74.10355
539.089	74.51884
539.524	73.98325
539.959	74.46841
540.393	74.32199
540.828	74.64122
541.263	74.84805
541.697	74.24302
542.132	74.79961
542.566	75.34895
543.001	74.88251
543.435	75.14864
543.869	75.45262
544.303	74.67873
544.738	74.59482
545.172	74.86813
545.606	75.12405
546.04	75.45576
546.474	75.26722
546.908	74.4808
547.342	74.82766
547.775	74.71613
548.209	74.37156
548.643	74.40133
549.077	74.73645
549.51	74.44343
549.944	74.3454
550.377	74.22875
550.811	73.8942
551.244	74.1954
551.677	73.81102
552.111	73.51921
552.544	73.67161
552.977	73.72224
553.41	72.92982
553.843	73.29576
554.276	73.02169
554.709	73.22319
555.142	73.03596
555.575	72.91898
556.008	72.63695
556.44	72.75797
556.873	72.13503
557.306	71.80638
557.738	71.60235
558.171	71.59971
558.603	71.83663
559.036	71.37493
559.468	70.98339
559.9	70.80874
560.333	69.97569
560.765	70.21998
561.197	69.68317
561.629	70.17465
562.061	69.92759
562.493	69.25666
562.925	69.61551
563.357	69.13869
563.789	68.87262
564.22	68.62682
564.652	68.67785
565.084	68.76972
565.515	68.19257
565.947	68.26994
566.378	67.91495
566.81	67.85207
567.241	67.27744
567.672	67.33198
568.104	66.95757
568.535	67.23018
568.966	66.34366
569.397	65.80816
569.828	66.23338
570.259	65.59921
570.69	65.44796
571.121	65.17472
571.552	64.8638
571.983	64.83594
572.414	64.4508
572.844	64.25806
573.275	64.22827
573.705	63.59748
574.136	63.37635
574.566	63.14123
574.997	62.87776
575.427	62.73557
575.857	62.68598
576.288	62.11226
576.718	61.52214
577.148	61.93361
577.578	61.31968
578.008	60.92094
578.438	60.78059
578.868	60.70906
579.298	60.43298
579.728	60.19112
580.157	60.15398
580.587	60.21948
581.017	59.65739
581.446	58.92943
581.876	59.46521
582.305	59.01575
582.735	58.7365
583.164	58.4722
583.593	57.43741
584.023	57.81659
584.452	57.44006
584.881	57.36915
585.31	56.93523
585.739	56.98211
586.168	57.03157
586.597	56.94703
587.026	56.46356
587.455	56.4093
587.884	55.86384
588.312	55.68005
588.741	55.59013
589.17	55.37127
589.598	55.44139
590.027	55.12923
590.455	54.62563
590.884	54.81813
591.312	54.61481
591.74	54.34853
592.168	54.51134
592.597	54.07111
593.025	53.66982
593.453	53.39476
593.881	53.55151
594.309	53.03347
594.737	52.73761
595.165	52.29651
595.592	52.28109
596.02	52.23787
596.448	52.17819
596.875	51.73903
597.303	51.28269
597.73	51.39952
598.158	51.02231
598.585	51.38264
599.013	50.79477
599.44	50.73491
599.867	50.68659
600.294	50.21509
600.722	50.10506
601.149	50.06856
601.576	50.07703
602.003	49.76081
602.43	49.76389
602.856	49.3658
603.283	49.5821
603.71	49.10275
604.137	48.76719
604.563	48.70787
604.99	48.89406
605.416	48.78102
605.843	48.379
606.269	48.00072
606.696	47.86441
607.122	47.77427
607.548	47.36815
607.975	47.31303
608.401	47.26344
608.827	47.46924
609.253	47.3474
609.679	47.30909
610.105	46.90782
610.531	46.71592
610.956	46.69279
611.382	46.66663
611.808	46.77088
612.234	46.592
612.659	46.21567
613.085	46.47737
613.51	45.80688
613.936	46.1331
614.361	46.1508
614.786	45.93987
615.212	45.9052
615.637	45.71181
616.062	46.22932
616.487	45.85583
616.912	46.09876
617.337	45.71785
617.762	46.01764
618.187	45.506
618.612	45.21269
619.037	45.23462
619.461	45.69203
619.886	45.09578
620.311	45.20548
620.735	45.21166
621.16	44.89459
621.584	44.67886
622.008	44.73923
622.433	45.1353
622.857	45.09622
623.281	44.99509
623.705	45.00716
624.13	44.94317
624.554	44.75098
624.978	44.77119
625.402	44.65984
625.826	44.78554
626.249	44.94253
626.673	44.89752
627.097	44.77721
627.521	45.11497
627.944	44.96563
628.368	44.75774
628.791	44.79951
629.215	44.87457
629.638	44.90209
630.061	45.03634
630.485	44.77539
630.908	44.67383
631.331	44.94631
631.754	44.98973
632.177	45.07222
632.6	45.05837
633.023	45.06948
633.446	44.74488
633.869	45.54524
634.292	45.38957
634.715	45.60099
635.137	45.2463
635.56	45.43097
635.982	45.47785
636.405	45.57938
636.827	45.61629
637.25	45.34877
637.672	45.40041
638.094	45.83909
638.517	45.83318
638.939	46.04781
639.361	46.52157
639.783	46.06244
640.205	46.31222
640.627	46.20091
641.049	46.01843
641.471	46.38669
641.893	46.81633
642.314	46.62528
642.736	46.73316
643.158	46.97848
643.579	47.13805
644.001	46.77038
644.422	47.32596
644.844	47.63769
645.265	47.77182
645.686	47.74136
646.107	47.75897
646.529	48.04616
646.95	48.44342
647.371	48.8994
647.792	48.37369
648.213	48.77095
648.634	48.27068
649.055	49.34982
649.475	49.52058
649.896	49.55054
650.317	49.99549
650.737	49.86754
651.158	49.65057
651.578	49.89934
651.999	50.32191
652.419	50.29011
652.84	50.42601
653.26	50.7716
653.68	51.09369
654.1	50.76707
654.521	51.29766
654.941	51.68173
655.361	51.41226
655.781	51.66987
656.2	51.92556
656.62	51.81265
657.04	51.77029
657.46	52.11057
657.879	52.24306
658.299	52.58535
658.719	53.02435
659.138	52.60873
659.558	53.5239
659.977	53.44176
660.396	53.18076
660.816	53.32881
661.235	53.82887
661.654	54.0944
662.073	54.01079
662.492	54.43779
662.911	54.62609
663.33	54.61198
663.749	54.3533
664.168	55.11579
664.587	54.77248
665.006	55.20674
665.424	55.21393
665.843	55.02668
666.261	55.36756
666.68	55.60445
667.098	56.06668
667.517	56.03155
667.935	55.866
668.353	55.15377
668.772	54.91361
669.19	55.69735
669.608	55.94468
670.026	56.1012
670.444	56.90828
670.862	56.30465
671.28	56.41836
671.698	56.74725
672.115	56.96833
672.533	56.67342
672.951	57.08757
673.368	57.12764
673.786	56.88721
674.203	56.4918
674.621	56.9009
675.038	56.81957
675.456	57.2181
675.873	56.61351
676.29	56.80725
676.707	56.96534
677.124	56.81871
677.541	56.89306
677.958	56.93393
678.375	57.03931
678.792	57.40261
679.209	57.19785
679.626	57.02199
680.043	56.85496
680.459	56.89224
680.876	57.09889
681.292	56.92937
681.709	56.69909
682.125	56.55208
682.542	56.4705
682.958	56.5013
683.374	56.54248
683.79	56.27143
684.207	55.94461
684.623	56.14437
685.039	56.26765
685.455	56.95537
685.871	55.88857
686.286	56.13949
686.702	56.00567
687.118	56.11973
687.534	56.07423
687.949	56.03962
688.365	55.13899
688.781	55.42923
689.196	55.5274
689.611	54.44701
690.027	55.00989
690.442	54.46316
690.857	54.852
691.273	54.3369
691.688	54.52977
692.103	54.43874
692.518	53.19162
692.933	54.16091
693.348	53.72714
693.763	53.82717
694.177	53.1225
694.592	53.02572
695.007	52.68722
695.421	52.70607
695.836	52.05374
696.25	51.45588
696.665	51.65049
697.079	51.61868
697.494	51.50057
697.908	51.3097
698.322	51.17026
698.736	50.26006
699.151	50.89103
699.565	50.92629
699.979	50.76466
700.393	50.19331
700.806	50.1096
701.22	49.96049
701.634	49.33002
702.048	50.03201
702.461	49.08928
702.875	49.29478
703.289	49.03487
703.702	49.34848
704.116	48.51591
704.529	49.14348
704.942	48.03062
705.356	48.29665
705.769	47.94986
706.182	48.15101
706.595	47.57677
707.008	47.27442
707.421	47.13786
707.834	46.44378
708.247	46.26577
708.66	46.35471
709.072	46.11787
709.485	45.77336
709.898	45.52646
710.31	45.0364
710.723	45.06916
711.135	44.50079
711.548	44.15978
711.96	43.67901
712.373	43.70549
712.785	43.00874
713.197	42.87018
713.609	42.42415
714.021	42.79853
714.433	41.75517
714.845	42.30859
715.257	41.26592
715.669	41.52137
716.081	40.90045
716.493	40.74047
716.904	40.35829
717.316	40.33255
717.727	40.53353
718.139	39.42448
718.55	39.46251
718.962	39.45963
719.373	39.32425
719.784	38.77198
720.196	38.64077
720.607	38.36498
721.018	38.09614
721.429	37.86262
721.84	37.74096
722.251	37.03937
722.662	37.40079
723.073	36.67856
723.483	36.99683
723.894	36.33001
724.305	36.31887
724.715	35.66469
725.126	35.26031
725.536	35.41109
725.947	35.20139
726.357	34.94922
726.768	34.65567
727.178	34.44287
727.588	33.94731
727.998	33.41938
728.408	33.56941
728.818	33.36459
729.228	33.73399
729.638	33.2044
730.048	33.06809
730.458	33.02244
730.868	32.66441
731.277	32.42229
731.687	32.06771
732.097	31.99076
732.506	31.87454
732.916	31.71909
733.325	31.52729
733.734	31.79687
734.144	31.19235
734.553	31.12594
734.962	30.61432
735.371	30.66311
735.78	30.15761
736.189	30.29988
736.598	29.5436
737.007	30.17188
737.416	29.25521
737.825	30.10146
738.233	29.37733
738.642	29.65811
739.051	29.25327
739.459	29.42517
739.868	28.99832
740.276	28.85573
740.684	28.73157
741.093	28.84201
741.501	28.76391
741.909	28.54519
742.317	27.98501
742.725	27.94057
743.133	28.44932
743.541	27.76032
743.949	28.11638
744.357	27.43252
744.765	27.97004
745.173	27.22317
745.58	27.73867
745.988	26.99549
746.396	27.53081
746.803	27.13699
747.211	27.22948
747.618	26.96014
748.025	26.94345
748.433	26.68722
748.84	26.3697
749.247	26.492
749.654	26.05885
750.061	26.40014
750.468	25.61837
750.875	26.20451
751.282	25.34563
751.689	25.90809
752.096	25.60867
752.502	25.77015
752.909	25.52678
753.316	25.48308
753.722	25.80329
754.129	25.24408
754.535	25.83768
754.941	25.20504
755.348	25.64438
755.754	25.0847
756.16	25.34984
756.566	24.80522
756.972	24.67102
757.378	24.74104
757.784	24.81959
758.19	24.42342
758.596	24.53855
759.002	24.86519
759.408	24.06625
759.813	24.36652
760.219	24.42515
760.624	24.65096
761.03	24.05685
761.435	24.20469
761.841	23.88715
762.246	23.67395
762.651	23.86636
763.057	23.78737
763.462	24.58497
763.867	24.27887
764.272	24.61194
764.677	24.62684
765.082	24.76017
765.487	24.21272
765.892	24.2193
766.296	24.38934
766.701	23.4859
767.106	24.274
767.51	23.80385
767.915	23.96317
768.319	23.53538
768.724	24.03664
769.128	23.65818
769.532	23.35393
769.936	23.7024
770.341	23.2164
770.745	23.7657
771.149	23.18012
771.553	24.01221
771.957	23.3575
772.361	23.43026
772.764	24.03836
773.168	23.32948
773.572	23.66241
773.976	23.06407
774.379	23.70767
774.783	23.27677
775.186	23.17334
775.59	23.48978
775.993	23.20725
776.396	23.16126
776.8	22.72019
777.203	22.75536
777.606	22.71323
778.009	22.80223
778.412	23.00208
778.815	22.76671
779.218	23.29796
779.621	22.8672
780.023	22.95124
780.426	23.06456
780.829	22.82147
781.231	23.02473
781.634	22.61473
782.036	23.3301
782.439	22.79477
782.841	22.62262
783.244	23.02649
783.646	22.90614
784.048	23.5212
784.45	22.85897
784.852	22.87172
785.254	22.39978
785.656	22.85123
786.058	22.76037
786.46	22.33346
786.862	22.26554
787.264	22.25403
787.665	22.39409
788.067	22.51287
788.468	22.62437
788.87	23.30338
789.271	22.58812
789.673	22.95385
790.074	22.73997
790.475	22.49305
790.877	22.97322
791.278	22.51757
791.679	22.53923
792.08	22.52039
792.481	22.50931
792.882	22.86972
793.283	22.59795
793.683	23.00162
794.084	22.60771
794.485	22.30627
794.886	22.70578
795.286	21.95507
795.687	22.70668
796.087	22.05911
796.487	22.11703
796.888	22.68255
797.288	22.39162
797.688	23.03375
798.088	22.26755
798.489	22.60092
798.889	22.80627
799.289	22.40829
799.689	23.08395
800.088	22.49353
800.488	22.61382
800.888	22.85135
801.288	22.52642
801.687	23.11784
802.087	22.71742
802.486	23.06764
802.886	22.78314
803.285	22.86208
803.685	23.44617
804.084	22.79528
804.483	22.81774
804.882	23.12511
805.281	22.31456
805.68	22.82695
806.079	22.71523
806.478	22.96003
806.877	23.22054
807.276	22.91157
807.675	23.45164
808.074	22.81116
808.472	23.15325
808.871	23.33606
809.269	22.6123
809.668	22.6473
810.066	23.51025
810.465	22.6905
810.863	23.30579
811.261	23.05477
811.659	22.88833
812.057	23.31908
812.455	23.05598
812.853	22.82079
813.251	23.06133
813.649	22.48969
814.047	23.37023
814.445	22.39283
814.843	22.58254
815.24	22.85103
815.638	22.65949
816.035	22.89543
816.433	22.98255
816.83	22.8426
817.228	23.1918
817.625	22.81446
818.022	22.84537
818.419	22.83899
818.816	22.9827
819.213	23.17579
819.61	22.80693
820.007	23.32972
820.404	23.51373
820.801	23.15217
821.198	23.93056
821.595	23.69555
821.991	23.60908
822.388	24.43398
822.784	24.30119
823.181	24.68445
823.577	25.09579
823.974	24.76776
824.37	25.04519
824.766	24.72921
825.162	24.54348
825.558	24.62052
825.954	23.92473
826.35	24.07654
826.746	24.77096
827.142	24.28149
827.538	24.72913
827.934	25.02752
828.33	24.65601
828.725	24.61426
829.121	24.41468
829.516	23.99848
829.912	24.35071
830.307	23.78984
830.703	24.00633
831.098	23.75298
831.493	23.32433
831.888	23.69876
832.283	23.33232
832.678	23.23918
833.073	23.9683
833.468	23.78559
833.863	23.77823
834.258	24.16378
834.653	24.01305
835.048	24.49196
835.442	24.62141
835.837	24.41493
836.231	24.49383
836.626	24.2144
837.02	24.27149
837.415	24.36506
837.809	24.12888
838.203	24.52599
838.597	23.94507
838.991	23.38695
839.385	23.65376
839.779	23.93888
840.173	23.4926
840.567	24.39756
840.961	24.52451
841.355	24.15789
841.748	24.78857
842.142	24.45362
842.536	24.29369
842.929	24.83299
843.323	24.9015
843.716	24.37692
844.109	25.69021
844.503	25.31301
844.896	24.58661
845.289	25.20221
845.682	24.34441
846.075	24.21978
846.468	24.42182
846.861	24.68665
847.254	24.80415
847.647	25.22557
848.04	25.4887
848.432	25.34064
848.825	24.55148
849.217	24.47294
849.61	25.44993
850.002	24.23847
850.395	24.43265
850.787	24.99359
851.179	24.74239
851.572	25.69238
851.964	24.93581
852.356	24.85422
852.748	24.63486
853.14	25.03524
853.532	25.75941
853.924	25.20892
854.315	24.78298
854.707	24.35879
855.099	24.82021
855.491	25.38607
855.882	24.51628
856.274	24.7575
856.665	24.85406
857.056	24.71503
857.448	24.36642
857.839	24.89209
858.23	25.35452
858.621	25.24235
859.012	25.57342
859.403	24.93166
859.794	25.86721
860.185	25.26254
860.576	23.84832
860.967	25.56146
861.358	24.73924
861.748	25.63771
862.139	25.61412
862.529	24.87661
862.92	25.26166
863.31	24.91751
863.701	25.66635
864.091	24.45139
864.481	25.53828
864.872	25.32007
865.262	24.37692
865.652	25.72921
866.042	25.21044
866.432	24.14447
866.822	25.211
867.211	25.61962
867.601	25.01119
867.991	25.06212
868.381	25.23079
868.77	24.79854
869.16	25.97099
869.549	24.7201
869.939	24.1393
870.328	25.13886
870.717	25.58507
871.106	24.22482
871.496	24.93821
871.885	24.71568
872.274	24.24201
872.663	25.19384
873.052	25.22417
873.441	24.919
873.829	24.25702
874.218	25.29798
874.607	24.72846
874.996	24.70748
875.384	25.1232
875.773	24.32458
876.161	24.42217
876.549	25.08959
876.938	24.49881
877.326	24.40054
877.714	25.06114
878.102	24.53534
878.491	24.09654
878.879	24.86202
879.267	24.26702
879.655	24.31687
880.042	25.23538
880.43	24.99318
880.818	24.62878
881.206	25.28596
881.593	25.47293
881.981	25.38735
882.368	25.69235
882.756	25.60947
883.143	25.49643
883.53	25.67951
883.918	25.38612
884.305	24.79382
884.692	25.10001
885.079	25.48491
885.466	24.79579
885.853	24.77678
886.24	25.30329
886.627	24.53729
887.014	24.70991
887.4	24.92678
887.787	24.90696
888.174	24.75213
888.56	24.98083
888.947	25.1257
889.333	25.04001
889.719	24.41495
890.106	24.09719
890.492	24.3624
890.878	24.23517
891.264	24.82958
891.65	23.80203
892.036	23.71222
892.422	24.45285
892.808	23.91538
893.194	23.98094
893.58	24.48202
893.965	24.82424
894.351	24.10628
894.736	24.4731
895.122	24.53304
895.507	24.10666
895.893	24.53177
896.278	24.48872
896.663	24.55434
897.049	24.5786
897.434	24.23259
897.819	23.69203
898.204	24.44791
898.589	24.03746
898.974	24.36219
899.359	23.93368
899.743	23.61655
900.128	24.15149
900.513	22.80086
900.897	23.59177
901.282	23.89414
901.667	23.15427
902.051	23.29395
902.435	24.153
902.82	23.68269
903.204	23.11897
903.588	23.90802
903.972	24.12938
904.356	23.98431
904.74	23.90934
905.124	25.1179
905.508	24.43419
905.892	24.0318
906.276	24.13881
906.659	23.76834
907.043	23.77621
907.427	24.27128
907.81	24.914
908.194	24.15817
908.577	24.18012
908.96	25.02812
909.344	24.49665
909.727	24.55178
910.11	24.69235
910.493	24.02633
910.876	24.11319
911.259	23.93368
911.642	24.16983
912.025	23.74814
912.408	23.69767
912.79	23.98834
913.173	23.31834
913.556	23.21368
913.938	24.16504
914.321	24.38426
914.703	23.27976
915.086	23.63396
915.468	24.16425
915.85	23.71902
916.232	23.4766
916.614	23.83331
916.996	24.07734
917.378	23.50797
917.76	23.42084
918.142	23.44711
918.524	23.87119
918.906	23.83338
919.288	23.64742
919.669	24.28375
920.051	23.76821
920.432	24.206
920.814	24.76934
921.195	23.93082
921.577	23.69045
921.958	23.88837
922.339	23.14197
922.72	23.4324
923.101	23.54346
923.482	23.67032
923.863	23.77695
924.244	24.19252
924.625	22.78007
925.006	24.22346
925.387	22.83517
925.767	23.68062
926.148	23.71811
926.528	22.90447
926.909	23.30271
927.289	23.13741
927.67	23.28163
928.05	23.22562
928.43	23.40708
928.81	23.37703
929.191	23.19814
929.571	23.32982
929.951	24.14363
930.331	23.05413
930.71	23.53621
931.09	23.57944
931.47	24.04217
931.85	23.6989
932.229	22.55138
932.609	23.52302
932.988	24.03656
933.368	23.52813
933.747	22.75602
934.127	23.71873
934.506	23.21015
934.885	23.21401
935.264	23.52225
935.643	23.26604
936.022	24.63905
936.401	22.82438
936.78	22.18951
937.159	24.17136
937.538	22.26618
937.916	22.99777
938.295	22.99202
938.674	23.05046
939.052	22.93484
939.431	23.65837
939.809	22.79468
940.187	24.79731
940.566	24.06055
940.944	22.29356
941.322	23.0821
941.7	21.74994
942.078	21.53676
942.456	22.94661
942.834	23.15586
943.212	22.31101
943.59	21.14913
943.968	22.43228
944.345	22.81362
944.723	22.59589
945.1	22.60634
945.478	21.75117
945.855	22.79987
946.233	20.74712
946.61	22.19679
946.987	22.7426
947.365	22.45966
947.742	20.59254
948.119	22.77357
948.496	20.81072
948.873	22.99156
949.25	21.69432
949.626	22.32426
950.003	22.39319
950.38	21.37711
950.756	21.46715
951.133	21.47892
951.51	20.9506
951.886	20.16935
952.262	22.05088
952.639	20.78186
953.015	20.37559
953.391	20.8257
953.767	20.41037
954.143	20.87257
954.519	18.83314
954.895	21.22419
955.271	23.35221
955.647	19.89486
956.023	19.48179
956.399	21.40222
956.774	20.39912
957.15	20.4297
957.525	19.7924
957.901	20.29274
958.276	18.80345
958.652	20.82278
959.027	18.39249
959.402	22.59542
959.777	17.3729
960.152	19.32596
960.527	22.80805
960.902	18.82823
961.277	20.8044
961.652	18.47697
962.027	20.39377
962.402	21.4311
962.776	18.54791
963.151	18.39595
963.525	21.23576
963.9	20.61758
964.274	21.12959
964.649	19.72185
965.023	20.42759
965.397	21.15565
965.771	20.66085
966.146	21.07901
966.52	20.81441
966.894	20.63352
967.268	22.88532
967.641	20.0922
968.015	20.3161
968.389	21.19699
968.763	19.53508
969.136	19.55701
969.51	21.44246
969.883	20.36451
970.257	18.42574
970.63	19.30744
971.003	19.47089
971.377	21.11768
971.75	18.09262
972.123	21.45303
972.496	19.41625
972.869	18.5696
973.242	22.62008
973.615	19.8284
973.988	19.00825
974.36	19.76439
974.733	19.08218
975.106	20.20312
975.478	20.87065
975.851	19.70336
976.223	18.74558
976.596	18.88747
976.968	20.47541
977.34	19.92739
977.712	19.28882
978.085	18.74641
978.457	19.02083
978.829	20.18863
979.201	19.07024
979.573	17.97494
979.944	18.49438
980.316	18.4802
980.688	19.6327
981.059	21.12614
981.431	18.22872
981.803	19.40216
982.174	20.11595
982.545	20.25249
982.917	19.88351
983.288	19.66003
983.659	19.71853
984.03	19.57527
984.401	20.36651
984.772	20.54591
985.143	20.10112
985.514	19.36102
985.885	20.54018
986.256	19.40554
986.627	18.14456
986.997	18.9661
987.368	17.51619
987.738	18.94955
988.109	18.59609
988.479	16.94646
988.85	17.20657
989.22	19.78797
989.59	17.39347
989.96	17.90331
990.33	17.6608
990.7	19.74997
991.07	17.40086
991.44	18.44517
991.81	18.86304
992.18	17.87927
992.549	20.65852
992.919	19.58752
993.289	18.61375
993.658	19.09464
994.028	19.95727
994.397	19.67876
994.766	17.69032
995.136	19.92816
995.505	18.98801
995.874	21.88287
996.243	16.39773
996.612	17.24034
996.981	17.67916
997.35	20.0088
997.719	18.96796
998.088	18.34538
998.456	19.09402
998.825	21.18877
999.194	18.16426
999.562	18.29469
999.931	19.73974
1000.299	20.54441
1000.667	21.4848
1001.036	19.74839
1001.404	16.86644
1001.772	22.31581
1002.14	22.86293
1002.508	19.69431
1002.876	21.79121
1003.244	18.9083
1003.612	17.98307
1003.98	23.26858
1004.347	15.39204
1004.715	15.57459
1005.083	16.38701
1005.45	16.04481
1005.818	21.45053
1006.185	16.34546
1006.552	18.28881
1006.92	22.20312
1007.287	15.89353
1007.654	18.17995
1008.021	17.99823
1008.388	18.35973
1008.755	18.8965
1009.122	20.3268
1009.489	19.87575
1009.856	16.55013
1010.222	17.10775
1010.589	17.01895
1010.956	18.30667
1011.322	16.47095
1011.689	16.24899
1012.055	12.58415
1012.421	20.70097
1012.788	17.03644
1013.154	17.38282
1013.52	19.65453
1013.886	20.70363
1014.252	18.30181
1014.618	18.4344
1014.984	15.58669
1015.35	19.2809
1015.716	21.46328
1016.081	23.24672
1016.447	20.44027
1016.813	20.0704
1017.178	20.71342
1017.544	21.18745
1017.909	15.63692
1018.274	19.47838
1018.64	25.02562
1019.005	18.28499
1019.37	18.17697
1019.735	23.25402
1020.1	19.92444
1020.465	18.21473
1020.83	14.09528
1021.195	17.63523
1021.56	22.62153
1021.924	14.62844
1022.289	14.80385
1022.654	15.12126
1023.018	10.19962
1023.383	18.51837
1023.747	25.89569
1024.111	8.73459
1024.476	15.47042
1024.84	23.55166
1025.204	22.35813
1025.568	16.85906
1025.932	11.94358
1026.296	7.75975
1026.66	15.26249
1027.024	13.71023
1027.387	7.58584
1027.751	20.7643
1028.115	19.98475
1028.478	14.83642
1028.842	17.2406
1029.205	14.8118
1029.569	13.49709
1029.932	18.16929
1030.295	11.92453
1030.659	8.03442
1031.022	9.99328
1031.385	30.9843
1031.748	29.1592
1032.111	6.90696
1032.474	8.84807
1032.836	15.92806
1033.199	19.62165
1033.562	8.66634
1033.924	11.10377
1034.287	9.17724
1034.65	10.75397
1035.012	16.38782
1035.374	28.90993
1035.737	17.04239
1036.099	27.65205
1036.461	13.49029
1036.823	3.16794
1037.185	16.45091
1037.547	7.58657
1037.909	20.55046
1038.271	15.33056
1038.633	1.36909
1038.995	29.98677
1039.356	29.9564
1039.718	13.05192
1040.08	17.24359
1040.441	12.75977
1040.803	5.24195
1041.164	6.54214
1041.525	7.41666
1041.886	-21.38274
1042.248	18.78898
1042.609	28.9743
1042.97	20.4684
1043.331	13.61428
1043.692	13.78766
1044.053	29.462
1044.413	-7.65726
1044.774	20.88677
1045.135	11.58327
1045.495	18.39261
1045.856	8.83379
1046.216	2.4145
1046.577	15.30963
1046.937	4.64966
1047.298	16.42615
