Data from 1017water_Reflection__1__20-59-58-688.txt Node

Date: Fri Oct 17 20:59:58 AST 2025
User: lin
Spectrometer: SR600411
Trigger mode: 0
Integration Time (sec): 5.846600E-2
Scans to average: 5
Nonlinearity correction enabled: true
Boxcar width: 0
Storing dark spectrum: false
XAxis mode: Wavelengths
Number of Pixels in Spectrum: 2048
>>>>>Begin Spectral Data<<<<<
187.982	45.25577
188.456	62.65626
188.93	40.17816
189.403	48.60637
189.877	48.08568
190.351	39.11527
190.825	52.14428
191.298	53.40142
191.772	45.95556
192.246	41.61676
192.719	44.22062
193.193	34.48758
193.666	38.32211
194.139	57.49947
194.613	51.89533
195.086	50.82136
195.559	44.55434
196.033	54.25218
196.506	59.67527
196.979	49.49424
197.452	53.1707
197.925	63.44951
198.398	41.90017
198.871	69.39515
199.344	54.2933
199.816	51.61542
200.289	49.36057
200.762	43.84579
201.235	52.85683
201.707	52.34804
202.18	38.66555
202.652	31.38802
203.125	45.67106
203.597	46.20564
204.07	49.15318
204.542	40.20864
205.014	45.40048
205.486	41.27083
205.959	44.37045
206.431	10.68882
206.903	36.93544
207.375	24.99496
207.847	37.4937
208.319	39.77043
208.791	12.84162
209.263	19.84321
209.734	28.77135
210.206	37.26764
210.678	18.91443
211.15	28.56635
211.621	8.90177
212.093	15.69932
212.564	55.71881
213.036	46.01214
213.507	41.88477
213.979	13.63431
214.45	19.1736
214.921	-0.9998
215.392	29.50318
215.864	28.20044
216.335	18.88616
216.806	5.88124
217.277	14.6762
217.748	36.8351
218.219	53.32816
218.69	49.69578
219.161	12.11982
219.631	20.18899
220.102	24.80144
220.573	41.40011
221.043	17.94645
221.514	19.35101
221.985	6.05949
222.455	22.11184
222.926	41.81289
223.396	26.55756
223.866	24.20708
224.337	46.0813
224.807	56.46646
225.277	15.49112
225.747	23.07281
226.217	41.92802
226.687	24.99659
227.157	29.13571
227.627	20.51031
228.097	25.14731
228.567	31.85355
229.037	25.94922
229.507	21.89317
229.977	5.49357
230.446	-21.91395
230.916	53.18686
231.386	24.20708
231.855	37.1364
232.325	55.45637
232.794	37.28268
233.263	21.96522
233.733	19.99668
234.202	29.19148
234.671	-6.95483
235.14	-1.41804
235.61	25.82878
236.079	29.78335
236.548	17.26962
237.017	43.23786
237.486	9.64716
237.955	30.92374
238.424	8.98732
238.892	35.91764
239.361	28.14275
239.83	-12.1929
240.299	5.45342
240.767	-11.10957
241.236	48.14415
241.704	22.44561
242.173	8.9731
242.641	17.64413
243.109	35.8148
243.578	36.71287
244.046	10.768
244.514	36.27802
244.982	13.99762
245.451	7.5256
245.919	17.89197
246.387	22.38345
246.855	48.97232
247.323	28.88523
247.791	-1.14923
248.258	-3.02969
248.726	28.08633
249.194	52.32134
249.662	48.18867
250.129	4.50356
250.597	50.44496
251.064	35.24552
251.532	-3.19088
251.999	-10.22531
252.467	68.03707
252.934	32.55254
253.401	22.44561
253.869	-1.0099
254.336	30.22897
254.803	19.66832
255.27	30.52233
255.737	0
256.204	14.08281
256.671	36.62903
257.138	43.63101
257.605	38.59115
258.072	16.02149
258.539	20.25064
259.005	26.97921
259.472	30.05899
259.939	7.40631
260.405	4.39485
260.872	58.56807
261.338	39.99454
261.805	55.29658
262.271	21.67352
262.737	20.42712
263.203	14.47182
263.67	15.59349
264.136	24.08264
264.602	64.70204
265.068	38.36807
265.534	14.4039
266	17.85389
266.466	-3.94675
266.932	30.32277
267.398	15.29194
267.864	0
268.329	35.8719
268.795	-41.65827
269.261	28.15122
269.726	3.95964
270.192	11.2342
270.657	21.33084
271.123	57.54205
271.588	0
272.053	62.95673
272.519	36.36061
272.984	49.99535
273.449	17.34416
273.914	32.09528
274.379	54.16313
274.844	34.54053
275.309	33.32885
275.774	42.96934
276.239	49.99535
276.704	41.6632
277.169	-22.88695
277.634	35.70983
278.098	4.54489
278.563	60.27051
279.028	24.63514
279.492	60.18929
279.957	0
280.421	63.78781
280.886	18.27682
281.35	53.56729
281.814	29.9021
282.279	-25.67096
282.743	40.99521
283.207	18.74711
283.671	-1.21931
284.135	23.52578
284.599	49.99654
285.063	20.40502
285.527	31.49064
285.991	4.47704
286.455	30.7654
286.919	72.14876
287.382	16.34334
287.846	32.16895
288.31	39.35727
288.773	15.26382
289.237	66.09646
289.7	16.53772
290.164	29.72667
290.627	62.36127
291.09	72.41035
291.554	-27.86456
292.017	59.21839
292.48	25.34945
292.943	1.75419
293.406	11.21285
293.869	56.81391
294.332	12.81879
294.795	27.8312
295.258	35.71048
295.721	15.99734
296.184	1.81799
296.646	28.56578
297.109	39.53082
297.572	40.4452
298.034	24.99525
298.497	-5.31811
298.959	47.8677
299.422	5.4787
299.884	26.44163
300.346	30.48437
300.809	15.88503
301.271	44.70172
301.733	17.94531
302.195	13.04245
302.657	-2.99939
303.119	34.93602
303.581	6.32819
304.043	36.88845
304.505	24.13478
304.967	28.56861
305.429	35.70983
305.891	8.88745
306.352	10.46352
306.814	60.56002
307.275	-24.72551
307.737	69.69283
308.198	40.21302
308.66	22.78206
309.121	7.36714
309.583	55.25944
310.044	23.84148
310.505	64.83106
310.966	24.1913
311.428	51.18632
311.889	48.23998
312.35	22.44561
312.811	13.48109
313.272	27.07959
313.733	20.99672
314.193	96.92157
314.654	41.59926
315.115	2.29846
315.576	26.87811
316.036	48.29926
316.497	40.62042
316.957	30.0838
317.418	41.5793
317.878	24.99703
318.339	39.28307
318.799	42.05092
319.259	2.43864
319.72	-1.1234
320.18	3.19091
320.64	0.9998
321.1	8.5452
321.56	22.12004
322.02	28.71959
322.48	55.69235
322.94	15.23541
323.4	31.91085
323.86	1.40826
324.319	0
324.779	18.06986
325.239	40.90383
325.698	0
326.158	53.84168
326.617	60.23704
327.077	19.80799
327.536	35.79879
327.996	19.38472
328.455	-8.82224
328.914	21.33084
329.373	-45.44735
329.832	22.4456
330.292	34.1737
330.751	39.61763
331.21	-22.03076
331.668	25.61528
332.127	46.27504
332.586	33.32792
333.045	15.92621
333.504	-12.9614
333.962	19.63936
334.421	54.54167
334.88	22.53276
335.338	5.17185
335.797	13.04245
336.255	26.57923
336.714	52.41324
337.172	18.88616
337.63	22.35002
338.088	46.78363
338.547	47.16459
339.005	38.9429
339.463	26.18727
339.921	5.45399
340.379	46.06304
340.837	66.66337
341.295	28.08633
341.753	45.82862
342.21	71.79175
342.668	1.83447
343.126	49.01457
343.584	31.24592
344.041	10.30751
344.499	21.50228
344.956	19.53752
345.414	54.54168
345.871	20.50905
346.328	31.94135
346.786	15.51423
347.243	44.99609
347.7	27.49685
348.157	20.23542
348.614	51.34587
349.071	-67.49105
349.528	57.9503
349.985	41.29774
350.442	7.14176
350.899	30.67812
351.356	66.66271
351.812	23.33015
352.269	29.26493
352.726	14.42054
353.182	0
353.639	44.17976
354.095	77.52502
354.552	6.92941
355.008	31.34043
355.465	3.38907
355.921	2.59702
356.377	11.49251
356.833	18.86472
357.289	47.4518
357.745	30.83661
358.201	12.86905
358.657	47.85023
359.113	20.17181
359.569	22.62299
360.025	53.03781
360.481	45.9218
360.937	16.3479
361.392	66.27147
361.848	27.13466
362.303	51.6705
362.759	50.39437
363.214	22.51487
363.67	46.6877
364.125	34.81139
364.581	29.35701
365.036	46.717
365.491	53.0774
365.946	47.80909
366.401	41.96602
366.856	41.77175
367.311	51.38696
367.766	45.66601
368.221	50.17273
368.676	40.4952
369.131	49.491
369.586	47.95852
370.041	47.59948
370.495	51.7644
370.95	51.37856
371.404	49.30469
371.859	54.55779
372.313	49.90014
372.768	50.22015
373.222	51.4291
373.676	47.19072
374.131	50.58914
374.585	54.34716
375.039	49.44717
375.493	55.28595
375.947	50.19161
376.401	53.42012
376.855	53.31259
377.309	51.7739
377.763	52.62757
378.217	55.93942
378.67	50.3669
379.124	53.48652
379.578	55.27926
380.031	51.02494
380.485	51.9245
380.938	55.57245
381.392	51.69056
381.845	53.45319
382.299	53.58612
382.752	51.33044
383.205	53.16911
383.658	51.12367
384.111	53.68268
384.564	52.37322
385.018	52.71583
385.471	52.58376
385.923	53.54908
386.376	54.52227
386.829	52.81474
387.282	53.43839
387.735	53.39886
388.187	53.84706
388.64	54.72891
389.093	54.1809
389.545	52.91622
389.998	52.7579
390.45	53.4745
390.902	53.49514
391.355	53.65201
391.807	54.3455
392.259	54.56001
392.711	53.04435
393.163	53.89977
393.615	54.61714
394.068	55.09953
394.519	53.66748
394.971	54.4673
395.423	53.77714
395.875	54.04351
396.327	53.3347
396.779	53.8395
397.23	53.90863
397.682	54.21418
398.133	54.86159
398.585	53.85186
399.036	53.87395
399.488	54.06278
399.939	54.05128
400.39	54.05735
400.842	53.55897
401.293	53.86562
401.744	53.58591
402.195	54.13319
402.646	52.99986
403.097	53.02136
403.548	52.85799
403.999	52.7962
404.45	52.90917
404.9	52.66321
405.351	52.79298
405.802	52.38001
406.253	52.84228
406.703	53.02574
407.154	52.10478
407.604	52.87182
408.055	52.32433
408.505	52.55175
408.955	50.98605
409.406	51.93337
409.856	51.91245
410.306	51.44342
410.756	51.39534
411.206	50.24765
411.656	50.93433
412.106	50.65929
412.556	50.17117
413.006	50.59509
413.456	50.28386
413.905	50.22752
414.355	49.48819
414.805	49.50651
415.254	49.46121
415.704	49.89783
416.153	49.56881
416.603	49.68301
417.052	48.81985
417.502	48.77181
417.951	49.25673
418.4	49.25994
418.849	48.92626
419.298	48.14614
419.748	48.23159
420.197	48.61574
420.646	48.0455
421.094	48.13558
421.543	47.91502
421.992	47.78669
422.441	47.83873
422.89	46.95531
423.338	47.39663
423.787	47.11243
424.236	47.11577
424.684	47.15295
425.133	46.49413
425.581	46.11263
426.029	45.79179
426.478	46.33064
426.926	46.41889
427.374	46.17627
427.822	45.63816
428.27	46.13961
428.718	46.0621
429.166	45.88024
429.614	46.35792
430.062	45.81649
430.51	45.93336
430.958	45.62512
431.406	45.66341
431.853	45.69291
432.301	45.18809
432.749	45.24907
433.196	45.41019
433.644	45.15253
434.091	44.95241
434.538	45.04912
434.986	44.98186
435.433	44.56684
435.88	45.04496
436.327	44.43204
436.775	45.24877
437.222	44.15337
437.669	44.45658
438.116	44.07644
438.563	44.50323
439.009	44.03027
439.456	44.11917
439.903	44.47789
440.35	44.68024
440.796	44.05211
441.243	44.15239
441.689	44.00482
442.136	44.25163
442.582	44.07559
443.029	44.39805
443.475	44.07297
443.921	44.512
444.368	44.10204
444.814	44.35563
445.26	44.17465
445.706	44.20754
446.152	44.39413
446.598	44.24702
447.044	44.29606
447.49	44.29717
447.936	44.2524
448.381	43.73172
448.827	44.65954
449.273	44.51047
449.718	44.47043
450.164	44.37928
450.61	44.52145
451.055	44.39147
451.5	44.5308
451.946	44.55485
452.391	44.2812
452.836	44.21823
453.282	44.44627
453.727	44.22538
454.172	44.06849
454.617	44.33466
455.062	44.50049
455.507	45.11655
455.952	44.49521
456.396	44.65291
456.841	44.76456
457.286	45.06685
457.731	45.15635
458.175	45.06703
458.62	45.13222
459.064	44.99544
459.509	44.78381
459.953	45.97664
460.398	45.28325
460.842	45.10782
461.286	45.68799
461.73	45.8861
462.174	45.63248
462.619	45.36968
463.063	46.19122
463.507	46.20117
463.951	46.37409
464.394	46.37729
464.838	46.27911
465.282	46.58246
465.726	46.50457
466.17	46.91338
466.613	46.76728
467.057	46.94328
467.5	47.70839
467.944	47.40578
468.387	47.21996
468.831	47.86093
469.274	48.28682
469.717	48.42733
470.16	48.36432
470.603	48.54865
471.047	48.51301
471.49	48.83267
471.933	49.36725
472.376	49.39236
472.818	50.1191
473.261	49.71851
473.704	49.65887
474.147	50.14852
474.59	49.87583
475.032	50.66599
475.475	50.69132
475.917	50.465
476.36	50.53795
476.802	50.73566
477.245	50.97638
477.687	51.14794
478.129	51.33285
478.571	51.58065
479.013	51.60995
479.456	52.14877
479.898	52.34164
480.34	52.51448
480.782	52.45872
481.224	52.92671
481.665	53.0168
482.107	53.44115
482.549	53.77246
482.991	53.87855
483.432	53.65912
483.874	53.65673
484.315	53.57133
484.757	53.93023
485.198	53.71711
485.64	53.99797
486.081	55.21022
486.522	54.15425
486.963	54.85978
487.405	54.58087
487.846	54.61002
488.287	54.68201
488.728	54.8226
489.169	54.92938
489.61	54.53285
490.05	54.45622
490.491	54.92741
490.932	55.57434
491.373	55.0166
491.813	55.02892
492.254	55.27861
492.694	55.48544
493.135	55.40604
493.575	55.17743
494.016	56.13944
494.456	55.59023
494.896	55.54404
495.336	55.48452
495.777	55.82748
496.217	56.01151
496.657	55.7305
497.097	56.4191
497.537	56.2965
497.977	56.34808
498.416	56.40363
498.856	56.61329
499.296	56.99744
499.736	57.23756
500.175	56.7119
500.615	57.21148
501.054	57.45369
501.494	57.12228
501.933	57.43796
502.373	57.42518
502.812	57.76177
503.251	57.88871
503.69	57.86219
504.129	58.09075
504.569	58.3411
505.008	58.30681
505.447	58.65092
505.886	58.77222
506.324	58.92471
506.763	59.32937
507.202	59.84113
507.641	59.70831
508.079	60.05965
508.518	60.3
508.957	60.85427
509.395	61.28137
509.834	61.49201
510.272	61.55027
510.71	61.67565
511.149	61.41274
511.587	61.4497
512.025	61.40067
512.463	61.65182
512.901	62.13048
513.339	62.23689
513.777	62.62497
514.215	63.27064
514.653	63.0722
515.091	63.52815
515.529	64.22693
515.966	63.96893
516.404	63.83851
516.842	64.17719
517.279	64.19578
517.717	64.2626
518.154	64.89666
518.592	65.10391
519.029	65.48844
519.466	66.13358
519.904	65.92395
520.341	65.9332
520.778	66.40301
521.215	66.6186
521.652	67.12813
522.089	66.92793
522.526	66.96057
522.963	66.95876
523.399	66.80943
523.836	67.5704
524.273	67.88505
524.71	68.06818
525.146	68.07555
525.583	68.86341
526.019	69.07466
526.456	68.79506
526.892	69.05931
527.328	69.55527
527.765	69.41496
528.201	69.96448
528.637	70.14134
529.073	70.42795
529.509	70.60128
529.945	70.49604
530.381	70.64281
530.817	70.02675
531.253	70.60709
531.689	71.31493
532.124	71.48338
532.56	72.21865
532.996	71.82879
533.431	71.88201
533.867	72.41135
534.302	72.6808
534.738	72.3618
535.173	72.9603
535.608	72.74279
536.044	73.34264
536.479	73.75014
536.914	73.48517
537.349	73.69735
537.784	73.84316
538.219	74.12677
538.654	74.16222
539.089	73.75397
539.524	74.3133
539.959	74.29654
540.393	73.89421
540.828	74.54049
541.263	74.81539
541.697	74.18118
542.132	74.71969
542.566	74.49426
543.001	74.70973
543.435	75.09436
543.869	75.12925
544.303	74.4611
544.738	74.75527
545.172	74.36595
545.606	74.70504
546.04	75.24859
546.474	74.63736
546.908	74.54585
547.342	74.64148
547.775	74.88104
548.209	74.54949
548.643	74.28616
549.077	75.26016
549.51	74.67333
549.944	74.66501
550.377	74.94488
550.811	74.17022
551.244	74.60402
551.677	74.00627
552.111	73.78384
552.544	73.50097
552.977	73.2346
553.41	72.6232
553.843	73.29055
554.276	72.99567
554.709	72.81186
555.142	72.91707
555.575	72.5215
556.008	72.51207
556.44	72.44305
556.873	71.9294
557.306	71.82752
557.738	71.99221
558.171	71.3488
558.603	71.62217
559.036	71.1585
559.468	71.11252
559.9	71.07596
560.333	70.51745
560.765	70.04851
561.197	69.95345
561.629	69.83821
562.061	69.78748
562.493	69.44539
562.925	69.46326
563.357	69.31382
563.789	69.09628
564.22	68.69476
564.652	68.46836
565.084	68.42671
565.515	68.41428
565.947	68.02337
566.378	68.04533
566.81	67.90498
567.241	67.52083
567.672	67.21986
568.104	67.00639
568.535	67.15614
568.966	66.79674
569.397	66.53756
569.828	66.41097
570.259	65.78933
570.69	65.89007
571.121	65.03708
571.552	65.34818
571.983	64.6833
572.414	64.08841
572.844	63.58375
573.275	64.10948
573.705	63.39881
574.136	62.92779
574.566	63.4766
574.997	62.9109
575.427	62.32943
575.857	61.91817
576.288	61.56717
576.718	61.56324
577.148	61.44617
577.578	61.57779
578.008	60.67889
578.438	60.68694
578.868	60.40866
579.298	60.33575
579.728	59.68518
580.157	59.84404
580.587	59.68498
581.017	59.80098
581.446	59.09632
581.876	59.39967
582.305	58.83204
582.735	58.45103
583.164	58.14373
583.593	57.59123
584.023	57.56024
584.452	57.41875
584.881	57.34789
585.31	57.10225
585.739	56.96772
586.168	56.70207
586.597	56.84074
587.026	56.21565
587.455	55.93739
587.884	55.79604
588.312	55.57865
588.741	55.12182
589.17	55.03297
589.598	54.75026
590.027	54.99835
590.455	54.6819
590.884	54.71286
591.312	53.97812
591.74	54.40754
592.168	54.24989
592.597	54.06451
593.025	53.28247
593.453	53.53146
593.881	53.25713
594.309	52.86199
594.737	52.60626
595.165	52.12676
595.592	51.81069
596.02	51.67664
596.448	52.0461
596.875	51.55634
597.303	51.04286
597.73	51.31489
598.158	50.76993
598.585	50.90876
599.013	50.34207
599.44	50.58908
599.867	50.58509
600.294	50.02215
600.722	49.87437
601.149	49.70603
601.576	50.01076
602.003	49.70389
602.43	49.5079
602.856	49.33595
603.283	49.3754
603.71	49.61432
604.137	49.11018
604.563	48.97953
604.99	49.10577
605.416	48.52355
605.843	48.46788
606.269	48.08566
606.696	48.3202
607.122	47.69491
607.548	47.2825
607.975	47.32259
608.401	47.34267
608.827	47.03382
609.253	47.16039
609.679	47.07674
610.105	46.80759
610.531	46.88311
610.956	46.56837
611.382	46.72063
611.808	46.7097
612.234	46.35315
612.659	46.14731
613.085	46.3014
613.51	46.04642
613.936	45.74701
614.361	46.30073
614.786	45.92871
615.212	45.51545
615.637	45.51393
616.062	46.1327
616.487	45.82937
616.912	45.86695
617.337	45.55147
617.762	45.80414
618.187	45.5156
618.612	45.2195
619.037	45.28603
619.461	45.43562
619.886	45.12266
620.311	45.18133
620.735	45.2582
621.16	45.08104
621.584	44.60503
622.008	44.99841
622.433	45.04313
622.857	44.85506
623.281	45.08105
623.705	45.33918
624.13	44.84144
624.554	45.0001
624.978	44.81185
625.402	44.7609
625.826	44.90697
626.249	44.82679
626.673	44.74869
627.097	44.98848
627.521	44.96655
627.944	44.88161
628.368	44.9192
628.791	44.81435
629.215	44.87457
629.638	44.72533
630.061	44.77597
630.485	44.69399
630.908	44.71864
631.331	44.96826
631.754	44.84444
632.177	45.26584
632.6	44.60462
633.023	44.99094
633.446	44.64456
633.869	45.57886
634.292	45.59318
634.715	45.61477
635.137	45.19279
635.56	45.04921
635.982	45.5249
636.405	45.83263
636.827	45.59333
637.25	45.64204
637.672	45.28378
638.094	45.78631
638.517	45.67764
638.939	46.10901
639.361	46.15775
639.783	46.16114
640.205	46.13543
640.627	46.41098
641.049	46.10187
641.471	45.98128
641.893	46.96731
642.314	46.82639
642.736	47.14652
643.158	46.93988
643.579	47.59561
644.001	47.13883
644.422	47.43961
644.844	47.49934
645.265	47.90342
645.686	47.74136
646.107	47.59257
646.529	48.38023
646.95	48.54459
647.371	48.77274
647.792	48.58583
648.213	49.15279
648.634	48.80577
649.055	49.59209
649.475	49.79603
649.896	49.70952
650.317	49.81431
650.737	49.60376
651.158	49.82198
651.578	49.89524
651.999	50.04974
652.419	50.20317
652.84	50.72499
653.26	51.11271
653.68	51.15878
654.1	51.13578
654.521	51.81127
654.941	51.44264
655.361	51.38679
655.781	51.81
656.2	51.87914
656.62	51.58711
657.04	51.93587
657.46	52.14023
657.879	52.14689
658.299	52.79407
658.719	53.26951
659.138	52.99509
659.558	53.03548
659.977	53.8098
660.396	53.70073
660.816	53.25553
661.235	53.50641
661.654	54.18697
662.073	53.744
662.492	54.7287
662.911	54.87822
663.33	54.56726
663.749	55.12739
664.168	55.13917
664.587	55.20184
665.006	55.51289
665.424	55.47532
665.843	55.17946
666.261	55.76148
666.68	56.02959
667.098	56.18973
667.517	56.26004
667.935	56.62435
668.353	55.34696
668.772	55.18306
669.19	55.63163
669.608	55.70612
670.026	56.57372
670.444	56.57583
670.862	56.25819
671.28	56.71864
671.698	56.56639
672.115	56.84963
672.533	56.98076
672.951	57.06334
673.368	57.08176
673.786	56.99494
674.203	56.55318
674.621	56.99017
675.038	57.16295
675.456	56.88421
675.873	56.78132
676.29	57.17376
676.707	56.83458
677.124	57.30959
677.541	56.75688
677.958	56.73964
678.375	56.73733
678.792	56.67926
679.209	57.01697
679.626	56.8805
680.043	57.251
680.459	57.28077
680.876	56.98456
681.292	56.90279
681.709	56.22975
682.125	56.55907
682.542	56.6458
682.958	56.18558
683.374	56.40263
683.79	56.29436
684.207	56.68665
684.623	56.29358
685.039	56.61605
685.455	56.73389
685.871	56.37368
686.286	56.38268
686.702	56.19163
687.118	56.23989
687.534	56.097
687.949	55.63977
688.365	55.71514
688.781	55.36622
689.196	55.46957
689.611	55.05968
690.027	54.89201
690.442	54.56588
690.857	54.90886
691.273	54.51153
691.688	54.85621
692.103	54.27096
692.518	54.09147
692.933	54.03008
693.348	53.65402
693.763	54.01443
694.177	53.30346
694.592	53.53941
695.007	52.43821
695.421	52.22025
695.836	51.99839
696.25	51.68897
696.665	51.55629
697.079	51.59631
697.494	51.06294
697.908	51.51575
698.322	51.08497
698.736	50.84518
699.151	50.55929
699.565	50.71863
699.979	50.77784
700.393	50.32938
700.806	50.21684
701.22	49.94171
701.634	49.36368
702.048	49.6099
702.461	49.2102
702.875	49.14692
703.289	48.8702
703.702	48.97289
704.116	48.45856
704.529	49.17981
704.942	47.90373
705.356	49.00397
705.769	48.10854
706.182	47.78555
706.595	47.36264
707.008	47.45863
707.421	46.82585
707.834	46.2471
708.247	46.5219
708.66	45.73817
709.072	45.86088
709.485	45.32308
709.898	45.22778
710.31	44.90355
710.723	45.0022
711.135	44.37915
711.548	44.24169
711.96	43.85915
712.373	43.84081
712.785	42.88206
713.197	43.12732
713.609	42.70728
714.021	42.27525
714.433	41.53911
714.845	42.10141
715.257	41.34028
715.669	41.67217
716.081	41.03593
716.493	40.77955
716.904	40.28842
717.316	40.20731
717.727	40.08561
718.139	39.348
718.55	39.09399
718.962	39.32609
719.373	38.7346
719.784	38.65916
720.196	38.12224
720.607	38.15264
721.018	37.67224
721.429	37.75261
721.84	37.21276
722.251	37.34268
722.662	37.19242
723.073	36.74455
723.483	36.30945
723.894	35.99555
724.305	35.73141
724.715	34.88447
725.126	34.96812
725.536	34.94484
725.947	34.74738
726.357	34.87763
726.768	34.56964
727.178	34.10359
727.588	33.87335
727.998	33.73001
728.408	33.46766
728.818	33.28554
729.228	33.07804
729.638	33.2557
730.048	32.96236
730.458	32.95266
730.868	32.2331
731.277	32.64474
731.687	32.09663
732.097	32.29279
732.506	31.7821
732.916	31.60071
733.325	31.48111
733.734	31.72651
734.144	31.15927
734.553	31.56374
734.962	30.32182
735.371	31.03269
735.78	30.19208
736.189	30.29125
736.598	29.82607
737.007	29.93576
737.416	29.50669
737.825	29.89813
738.233	29.42842
738.642	29.62127
739.051	29.2849
739.459	29.44113
739.868	29.29677
740.276	28.75563
740.684	28.73336
741.093	28.61556
741.501	28.38307
741.909	28.29297
742.317	28.33581
742.725	28.09736
743.133	28.09184
743.541	27.83037
743.949	28.10321
744.357	27.5182
744.765	28.16815
745.173	27.2785
745.58	27.89218
745.988	26.97625
746.396	27.30153
746.803	27.24709
747.211	27.02714
747.618	26.90054
748.025	26.4524
748.433	26.62444
748.84	26.29564
749.247	26.73762
749.654	26.28287
750.061	26.53123
750.468	25.8742
750.875	25.81645
751.282	25.47534
751.689	25.93148
752.096	25.74858
752.502	25.87626
752.909	25.50885
753.316	25.51322
753.722	25.59651
754.129	25.19748
754.535	25.75626
754.941	25.12953
755.348	25.50024
755.754	24.82024
756.16	24.94082
756.566	24.52767
756.972	24.89695
757.378	24.52063
757.784	24.6291
758.19	24.50214
758.596	24.08875
759.002	24.60215
759.408	24.17647
759.813	24.61447
760.219	24.01078
760.624	24.70145
761.03	24.04419
761.435	23.92203
761.841	23.69309
762.246	23.58967
762.651	23.81593
763.057	23.47064
763.462	24.70775
763.867	24.18106
764.272	24.93411
764.677	24.49121
765.082	24.56417
765.487	24.29749
765.892	23.92599
766.296	24.47446
766.701	23.64999
767.106	24.26599
767.51	23.71023
767.915	23.71689
768.319	24.04006
768.724	23.72052
769.128	23.69965
769.532	23.2788
769.936	23.87781
770.341	23.34355
770.745	23.48859
771.149	23.56882
771.553	23.52695
771.957	23.541
772.361	23.10321
772.764	24.01586
773.168	23.11666
773.572	23.71848
773.976	23.20804
774.379	23.30332
774.783	23.23758
775.186	22.93043
775.59	23.33572
775.993	23.1723
776.396	23.28512
776.8	22.86148
777.203	22.44151
777.606	22.91237
778.009	22.7589
778.412	23.11004
778.815	22.7938
779.218	23.24122
779.621	22.73998
780.023	22.82363
780.426	23.07543
780.829	22.73367
781.231	23.01373
781.634	22.72829
782.036	23.21204
782.439	22.62731
782.841	22.69138
783.244	22.93807
783.646	22.42886
784.048	23.35831
784.45	22.67185
784.852	22.94277
785.254	22.78846
785.656	22.64638
786.058	22.43224
786.46	22.08494
786.862	22.23263
787.264	22.25403
787.665	22.24906
788.067	22.49893
788.468	22.15077
788.87	22.91711
789.271	22.27952
789.673	22.83201
790.074	22.6172
790.475	22.59173
790.877	22.97069
791.278	22.54857
791.679	22.94735
792.08	22.50161
792.481	22.531
792.882	22.57314
793.283	22.3409
793.683	22.60015
794.084	22.38839
794.485	22.3396
794.886	22.883
795.286	22.26655
795.687	23.05591
796.087	22.26825
796.487	22.37285
796.888	22.79699
797.288	22.09957
797.688	22.92985
798.088	22.11543
798.489	22.51228
798.889	22.555
799.289	22.38859
799.689	23.19787
800.088	22.86086
800.488	22.11737
800.888	22.96729
801.288	22.63515
801.687	23.23754
802.087	22.61438
802.486	22.5861
802.886	22.95313
803.285	22.58397
803.685	23.12237
804.084	22.72167
804.483	22.45012
804.882	23.02149
805.281	22.4496
805.68	23.01447
806.079	22.99031
806.478	22.72023
806.877	23.05639
807.276	22.71056
807.675	23.06009
808.074	22.83685
808.472	22.42515
808.871	23.11306
809.269	22.77941
809.668	22.44051
810.066	23.41787
810.465	22.50325
810.863	22.87979
811.261	22.7645
811.659	22.85361
812.057	23.06058
812.455	22.39609
812.853	22.74421
813.251	22.6154
813.649	22.95127
814.047	22.78056
814.445	22.5957
814.843	22.4909
815.24	23.31093
815.638	22.82744
816.035	23.02635
816.433	22.71213
816.83	22.36579
817.228	23.1427
817.625	22.44172
818.022	22.93175
818.419	22.95148
818.816	22.51245
819.213	23.21105
819.61	22.65839
820.007	23.19604
820.404	23.47245
820.801	23.0364
821.198	23.64691
821.595	23.62748
821.991	23.43136
822.388	24.42061
822.784	24.20017
823.181	24.57047
823.577	25.0264
823.974	24.56386
824.37	24.84879
824.766	24.55488
825.162	24.14197
825.558	24.26448
825.954	23.72974
826.35	23.90323
826.746	24.3441
827.142	24.12539
827.538	24.57594
827.934	24.73433
828.33	24.36355
828.725	24.59864
829.121	24.09354
829.516	24.06798
829.912	24.30959
830.307	23.91231
830.703	23.74553
831.098	23.82914
831.493	23.53123
831.888	23.7238
832.283	23.38697
832.678	23.12736
833.073	23.72895
833.468	23.47969
833.863	23.68994
834.258	24.34721
834.653	23.77348
835.048	24.10811
835.442	24.53074
835.837	24.03565
836.231	24.52811
836.626	24.18959
837.02	23.95527
837.415	24.15406
837.809	24.12289
838.203	24.23876
838.597	24.06021
838.991	23.36983
839.385	23.43693
839.779	23.89819
840.173	23.76945
840.567	24.16068
840.961	24.59934
841.355	24.01634
841.748	24.36854
842.142	24.74355
842.536	23.91199
842.929	24.46835
843.323	24.17799
843.716	23.8994
844.109	24.89333
844.503	25.04288
844.896	23.77063
845.289	25.3815
845.682	24.42243
846.075	23.95757
846.468	24.76959
846.861	24.36268
847.254	24.27119
847.647	24.76468
848.04	24.32911
848.432	24.69037
848.825	24.74584
849.217	24.02121
849.61	24.79774
850.002	24.28138
850.395	24.13465
850.787	24.74256
851.179	23.79777
851.572	24.73853
851.964	24.8621
852.356	24.34457
852.748	24.68765
853.14	24.547
853.532	24.4551
853.924	24.2858
854.315	24.89776
854.707	24.47386
855.099	24.42138
855.491	25.61433
855.882	24.16778
856.274	25.07395
856.665	24.99045
857.056	25.0573
857.448	24.04765
857.839	25.02109
858.23	24.76827
858.621	24.70953
859.012	25.09918
859.403	24.66788
859.794	25.41483
860.185	25.39891
860.576	24.74473
860.967	24.57277
861.358	24.68698
861.748	23.72009
862.139	24.72919
862.529	25.1088
862.92	24.04388
863.31	24.88904
863.701	25.34351
864.091	24.47888
864.481	25.28543
864.872	25.17952
865.262	24.09907
865.652	24.49298
866.042	24.72448
866.432	24.4531
866.822	25.19241
867.211	24.66674
867.601	23.88367
867.991	24.82808
868.381	24.57498
868.77	24.93933
869.16	25.27695
869.549	24.52106
869.939	23.77959
870.328	23.95122
870.717	25.31412
871.106	24.49533
871.496	24.50994
871.885	25.07265
872.274	24.51598
872.663	24.49208
873.052	25.5655
873.441	24.32445
873.829	24.22566
874.218	25.38112
874.607	24.61963
874.996	24.73588
875.384	24.74661
875.773	24.40429
876.161	23.9907
876.549	24.8072
876.938	24.23102
877.326	24.22885
877.714	24.64714
878.102	24.56767
878.491	24.11503
878.879	24.43613
879.267	24.07144
879.655	24.21202
880.042	24.87448
880.43	24.77229
880.818	24.51503
881.206	25.09257
881.593	25.23577
881.981	24.79326
882.368	25.59325
882.756	25.69968
883.143	25.37108
883.53	25.64176
883.918	25.46906
884.305	24.76722
884.692	24.82197
885.079	25.14025
885.466	24.68914
885.853	24.71199
886.24	25.11798
886.627	24.77062
887.014	24.50571
887.4	24.62974
887.787	24.91928
888.174	24.35278
888.56	24.88429
888.947	25.04693
889.333	23.90186
889.719	24.30447
890.106	24.86239
890.492	23.79205
890.878	24.00395
891.264	24.55798
891.65	24.23367
892.036	23.32944
892.422	24.65011
892.808	23.41286
893.194	23.3582
893.58	24.68986
893.965	24.14665
894.351	23.75123
894.736	24.2849
895.122	24.49211
895.507	23.89012
895.893	24.5889
896.278	23.91336
896.663	24.11555
897.049	24.058
897.434	24.27537
897.819	23.52185
898.204	23.99107
898.589	23.9086
898.974	24.50106
899.359	23.84926
899.743	23.91062
900.128	24.33936
900.513	23.60004
900.897	23.75467
901.282	23.91818
901.667	23.62743
902.051	22.80591
902.435	23.5384
902.82	23.54922
903.204	22.92531
903.588	23.51183
903.972	23.7831
904.356	23.2437
904.74	23.97709
905.124	24.3572
905.508	24.01142
905.892	23.65307
906.276	23.85791
906.659	24.08597
907.043	23.90701
907.427	24.0158
907.81	24.11994
908.194	23.82219
908.577	24.01818
908.96	23.7143
909.344	24.38202
909.727	24.2028
910.11	24.42914
910.493	24.51304
910.876	23.42536
911.259	23.91112
911.642	24.31817
912.025	23.08245
912.408	23.19376
912.79	23.78891
913.173	22.47769
913.556	23.1412
913.938	23.76806
914.321	24.03162
914.703	22.93629
915.086	23.59021
915.468	23.41705
915.85	23.45039
916.232	23.37352
916.614	23.64062
916.996	23.76322
917.378	23.53167
917.76	23.37203
918.142	23.41209
918.524	23.2599
918.906	24.0033
919.288	23.48525
919.669	24.05858
920.051	23.71134
920.432	23.88838
920.814	23.88178
921.195	23.5399
921.577	23.39171
921.958	23.26378
922.339	23.17641
922.72	23.46098
923.101	22.66096
923.482	23.88906
923.863	22.94788
924.244	23.82699
924.625	23.64974
925.006	23.51093
925.387	23.27844
925.767	22.69881
926.148	22.94627
926.528	22.89549
926.909	22.94911
927.289	23.50348
927.67	23.98643
928.05	23.77609
928.43	23.2992
928.81	23.63614
929.191	22.49404
929.571	21.82277
929.951	23.4885
930.331	23.31549
930.71	23.92687
931.09	23.60717
931.47	23.60921
931.85	23.15552
932.229	21.87412
932.609	22.23576
932.988	23.37779
933.368	22.94534
933.747	22.62614
934.127	22.64676
934.506	23.69084
934.885	21.81491
935.264	23.38032
935.643	24.36338
936.022	23.79341
936.401	22.94527
936.78	22.99952
937.159	23.72589
937.538	22.45641
937.916	22.16708
938.295	22.60072
938.674	23.34873
939.052	22.72585
939.431	23.58045
939.809	22.87422
940.187	24.27902
940.566	24.13225
940.944	22.3831
941.322	22.92717
941.7	23.08288
942.078	21.5865
942.456	23.82438
942.834	24.04886
943.212	20.22292
943.59	22.05644
943.968	22.77324
944.345	21.18293
944.723	21.82097
945.1	21.69286
945.478	22.08232
945.855	21.54191
946.233	20.83485
946.61	21.30691
946.987	20.94122
947.365	22.4942
947.742	20.21698
948.119	22.43282
948.496	22.34336
948.873	21.5873
949.25	22.02711
949.626	22.17861
950.003	21.39547
950.38	21.72569
950.756	19.95349
951.133	20.37452
951.51	20.68836
951.886	21.47067
952.262	22.67001
952.639	21.62545
953.015	20.59215
953.391	21.08754
953.767	22.31183
954.143	21.07342
954.519	21.7548
954.895	21.34178
955.271	21.01302
955.647	18.78249
956.023	18.91331
956.399	22.24702
956.774	21.58697
957.15	18.19416
957.525	22.76868
957.901	20.46138
958.276	21.52724
958.652	20.28968
959.027	18.45306
959.402	20.02668
959.777	17.85511
960.152	19.52206
960.527	19.18367
960.902	20.16078
961.277	22.59566
961.652	19.10681
962.027	18.37911
962.402	21.93168
962.776	21.18235
963.151	19.25871
963.525	19.5102
963.9	20.75228
964.274	21.58248
964.649	22.21407
965.023	20.52113
965.397	22.90805
965.771	20.80758
966.146	19.36536
966.52	21.47841
966.894	19.36122
967.268	21.71709
967.641	21.07243
968.015	21.66538
968.389	20.00417
968.763	21.09164
969.136	19.19906
969.51	20.57115
969.883	20.64081
970.257	18.50251
970.63	20.32001
971.003	19.51782
971.377	21.14163
971.75	20.28843
972.123	20.5421
972.496	21.14768
972.869	18.59262
973.242	21.17956
973.615	19.36187
973.988	20.1146
974.36	18.32383
974.733	18.64951
975.106	18.8218
975.478	20.58093
975.851	21.82076
976.223	18.36453
976.596	17.70919
976.968	20.22825
977.34	19.81289
977.712	19.21371
978.085	18.34328
978.457	18.77313
978.829	19.60599
979.201	19.18752
979.573	17.92295
979.944	19.56394
980.316	19.4124
980.688	19.74153
981.059	19.95604
981.431	19.66132
981.803	20.11395
982.174	20.85203
982.545	19.91431
982.917	20.27492
983.288	19.98667
983.659	18.33237
984.03	18.48772
984.401	20.68233
984.772	21.00316
985.143	19.88113
985.514	21.06071
985.885	20.54018
986.256	17.96718
986.627	19.90895
986.997	17.22175
987.368	18.78334
987.738	20.77383
988.109	17.87302
988.479	18.10522
988.85	18.11083
989.22	19.00938
989.59	18.05327
989.96	18.0107
990.33	17.71044
990.7	18.54964
991.07	18.03517
991.44	18.03623
991.81	17.84034
992.18	18.98561
992.549	21.09372
992.919	19.27762
993.289	18.75171
993.658	18.65232
994.028	18.6779
994.397	19.84792
994.766	17.5497
995.136	20.51413
995.505	18.67706
995.874	19.78245
996.243	18.32436
996.612	17.50497
996.981	18.7576
997.35	19.11552
997.719	16.58149
998.088	19.31977
998.456	20.14933
998.825	18.78787
999.194	18.68615
999.562	18.20472
999.931	20.61884
1000.299	21.33906
1000.667	16.82251
1001.036	18.14334
1001.404	16.50294
1001.772	22.36811
1002.14	21.71067
1002.508	20.20992
1002.876	18.83362
1003.244	21.21584
1003.612	17.73403
1003.98	19.31716
1004.347	20.17404
1004.715	15.44993
1005.083	17.16774
1005.45	15.32115
1005.818	21.45053
1006.185	15.2643
1006.552	16.30887
1006.92	19.62935
1007.287	20.85028
1007.654	19.62469
1008.021	16.92031
1008.388	19.34738
1008.755	21.43937
1009.122	19.68112
1009.489	20.93898
1009.856	20.01621
1010.222	14.85572
1010.589	16.27049
1010.956	19.01365
1011.322	19.07307
1011.689	21.89832
1012.055	13.31299
1012.421	20.01055
1012.788	17.92279
1013.154	18.72609
1013.52	19.34966
1013.886	18.39384
1014.252	16.10475
1014.618	17.62197
1014.984	16.00584
1015.35	14.62529
1015.716	20.38062
1016.081	21.17339
1016.447	22.60319
1016.813	23.32912
1017.178	15.8855
1017.544	21.7121
1017.909	15.07831
1018.274	20.12076
1018.64	17.21717
1019.005	20.39551
1019.37	19.08612
1019.735	25.501
1020.1	20.94654
1020.465	19.2063
1020.83	15.16944
1021.195	14.6719
1021.56	23.98475
1021.924	20.54054
1022.289	17.79522
1022.654	11.0991
1023.018	22.02138
1023.383	12.66956
1023.747	25.74242
1024.111	11.10049
1024.476	22.05531
1024.84	16.4135
1025.204	20.08687
1025.568	11.30731
1025.932	24.26943
1026.296	7.95376
1026.66	17.90844
1027.024	20.56668
1027.387	14.52238
1027.751	7.35312
1028.115	16.06961
1028.478	21.59885
1028.842	15.86897
1029.205	15.69621
1029.569	17.63395
1029.932	21.43103
1030.295	16.21793
1030.659	8.7877
1031.022	13.67539
1031.385	22.82896
1031.748	22.33843
1032.111	11.28179
1032.474	9.8891
1032.836	15.67112
1033.199	11.51066
1033.562	8.93718
1033.924	16.39192
1034.287	29.83078
1034.65	11.01628
1035.012	8.32774
1035.374	35.36999
1035.737	12.7092
1036.099	20.73805
1036.461	7.98373
1036.823	11.2324
1037.185	16.14048
1037.547	11.87494
1037.909	21.4847
1038.271	15.62541
1038.633	1.71136
1038.995	18.11565
1039.356	20.76059
1039.718	14.08241
1040.08	16.28552
1040.441	13.82317
1040.803	11.88221
1041.164	-1.45375
1041.525	16.60005
1041.886	-2.48655
1042.248	12.77611
1042.609	17.74567
1042.97	10.23359
1043.331	14.61054
1043.692	8.61708
1044.053	21.74481
1044.413	15.71933
1044.774	28.34746
1045.135	-14.15566
1045.495	20.39201
1045.856	18.13323
1046.216	-15.45165
1046.577	24.7666
1046.937	12.78691
1047.298	22.99725
