Data from 1017water_Reflection__19__21-02-14-129.txt Node

Date: Fri Oct 17 21:02:14 AST 2025
User: lin
Spectrometer: SR600411
Trigger mode: 0
Integration Time (sec): 5.846600E-2
Scans to average: 5
Nonlinearity correction enabled: true
Boxcar width: 0
Storing dark spectrum: false
XAxis mode: Wavelengths
Number of Pixels in Spectrum: 2048
>>>>>Begin Spectral Data<<<<<
187.982	39.85083
188.456	58.2114
188.93	39.85665
189.403	52.74434
189.877	49.35148
190.351	46.56801
190.825	47.43841
191.298	38.54257
191.772	39.90759
192.246	45.44431
192.719	48.06665
193.193	31.43129
193.666	54.57157
194.139	50.63225
194.613	47.11828
195.086	65.204
195.559	45.12573
196.033	49.56886
196.506	48.19497
196.979	55.31971
197.452	55.06208
197.925	51.44818
198.398	49.47542
198.871	60.84096
199.344	54.00593
199.816	48.64806
200.289	54.80001
200.762	56.12649
201.235	46.29948
201.707	47.15937
202.18	37.56067
202.652	35.45733
203.125	41.35025
203.597	55.29659
204.07	41.33221
204.542	21.73294
205.014	48.78204
205.486	45.92179
205.959	52.65439
206.431	22.00719
206.903	51.5846
207.375	29.40619
207.847	28.67097
208.319	38.1131
208.791	34.85749
209.263	19.84321
209.734	48.914
210.206	54.54006
210.678	45.93867
211.15	26.97922
211.621	7.53224
212.093	37.1845
212.564	48.84849
213.036	39.81765
213.507	33.10162
213.979	49.99565
214.45	26.70667
214.921	3.99924
215.392	13.11201
215.864	-0.8545
216.335	19.99715
216.806	41.17159
217.277	14.6762
217.748	32.23027
218.219	50.471
218.69	41.41201
219.161	1.51496
219.631	39.41817
220.102	34.87792
220.573	27.33872
221.043	21.79224
221.514	10.48157
221.985	-3.02969
222.455	34.61073
222.926	42.72195
223.396	32.02574
223.866	35.78515
224.337	42.60313
224.807	56.46646
225.277	11.2662
225.747	7.69066
226.217	36.76706
226.687	3.2603
227.157	27.42168
227.627	21.79224
228.097	34.96199
228.567	39.81765
229.037	24.4227
229.507	35.03032
229.977	9.88851
230.446	2.73934
230.916	21.27348
231.386	17.89198
231.855	26.42319
232.325	38.64988
232.794	24.57195
233.263	24.9951
233.733	40.94736
234.202	23.35281
234.671	43.47267
235.14	17.72643
235.61	45.82744
236.079	17.01865
236.548	38.17668
237.017	25.22108
237.486	27.18852
237.955	-7.21501
238.424	29.20984
238.892	30.0928
239.361	45.91929
239.83	24.38725
240.299	31.81346
240.767	7.9356
241.236	45.67503
241.704	23.46591
242.173	43.58595
242.641	10.78237
243.109	54.47104
243.578	28.90105
244.046	39.99692
244.514	7.96296
244.982	28.99592
245.451	15.05141
245.919	28.41723
246.387	45.51581
246.855	44.89076
247.323	26.66318
247.791	28.73211
248.258	23.22883
248.726	60.66996
249.194	59.29822
249.662	18.06986
250.129	3.60284
250.597	11.70944
251.064	23.73603
251.532	-12.76328
251.999	-18.17808
252.467	39.17069
252.934	47.28046
253.401	37.75056
253.869	34.33902
254.336	33.71713
254.803	40.15815
255.27	27.36468
255.737	40.73558
256.204	23.9411
256.671	36.62903
257.138	33.6315
257.605	21.04888
258.072	33.32648
258.539	-1.26562
259.005	35.70856
259.472	35.94074
259.939	4.93752
260.405	2.19742
260.872	74.28307
261.338	31.29945
261.805	28.78253
262.271	25.1695
262.737	22.57743
263.203	2.63119
263.67	24.76662
264.136	23.35282
264.602	24.70275
265.068	12.7888
265.534	38.9775
266	28.56691
266.466	19.73446
266.932	49.1743
267.398	34.11387
267.864	-15.04038
268.329	48.08513
268.795	-19.44114
269.261	59.21838
269.726	23.75876
270.192	13.48109
270.657	53.32964
271.123	41.50434
271.588	9.61449
272.053	38.51218
272.519	27.27013
272.984	43.61245
273.449	11.22256
273.914	40.73688
274.379	23.60854
274.844	37.26764
275.309	18.62439
275.774	55.36598
276.239	-14.89044
276.704	43.05206
277.169	-12.04598
277.634	29.58779
278.098	24.24003
278.563	68.49003
279.028	52.1705
279.492	42.71346
279.957	-8.57014
280.421	69.82275
280.886	30.10365
281.35	41.66262
281.814	31.77111
282.279	21.61914
282.743	25.99619
283.207	33.32912
283.671	-20.72764
284.135	33.32885
284.599	37.13963
285.063	31.62846
285.527	59.04904
285.991	29.84797
286.455	6.5923
286.919	26.57923
287.382	35.57221
287.846	23.47417
288.31	22.3372
288.773	26.71248
289.237	44.06204
289.7	20.29649
290.164	37.8344
290.627	13.97628
291.09	37.92698
291.554	-42.61562
292.017	53.39299
292.48	19.71608
292.943	94.73628
293.406	14.01614
293.869	32.9507
294.332	32.04792
294.795	60.82017
295.258	36.9009
295.721	27.99601
296.184	27.27057
296.646	35.70793
297.109	69.76385
297.572	39.32164
298.034	57.80632
298.497	-3.19088
298.959	7.44553
299.422	15.06664
299.884	16.52562
300.346	47.55693
300.809	18.68838
301.271	18.82096
301.733	42.72938
302.195	-6.52111
302.657	17.99708
303.119	60.23703
303.581	21.51635
304.043	63.10205
304.505	56.3176
304.967	-35.70758
305.429	48.97475
305.891	-21.10656
306.352	29.06626
306.814	52.10917
307.275	8.6007
307.737	20.19886
308.198	56.51727
308.66	-13.92157
309.121	56.8375
309.583	15.78747
310.044	9.99768
310.505	72.52388
310.966	-1.6127
311.428	32.13923
311.889	23.68013
312.35	47.95435
312.811	44.93947
313.272	30.20434
313.733	48.99506
314.193	13.84011
314.654	35.7602
315.115	-12.64123
315.576	12.90116
316.036	41.51976
316.497	-3.12439
316.957	30.0838
317.418	41.5793
317.878	27.49685
318.339	5.35658
318.799	28.03311
319.259	17.07087
319.72	33.70393
320.18	10.63653
320.64	40.99522
321.1	5.12708
321.56	22.12004
322.02	6.38187
322.48	13.92218
322.94	6.66537
323.4	11.70021
323.86	5.63306
324.319	11.11058
324.779	30.11702
325.239	39.99478
325.698	12.11913
326.158	94.50456
326.617	57.82733
327.077	28.29763
327.536	61.72461
327.996	1.02021
328.455	-11.76294
328.914	-13.33109
329.373	16.36215
329.832	24.48621
330.292	35.43946
330.751	31.12759
331.21	1.69472
331.668	34.70532
332.127	48.75435
332.586	56.09157
333.045	53.97674
333.504	-37.03162
333.962	65.17355
334.421	90.90783
334.88	-8.44942
335.338	12.06775
335.797	30.43286
336.255	20.25064
336.714	41.92951
337.172	8.88745
337.63	3.52884
338.088	42.19658
338.547	33.01423
339.005	25.25961
339.463	11.90302
339.921	-45.44736
340.379	51.68099
340.837	25.33053
341.295	32.5804
341.753	35.41233
342.21	58.97062
342.668	3.66896
343.126	37.25019
343.584	42.70369
344.041	26.80036
344.499	27.95329
344.956	29.88145
345.414	42.85342
345.871	47.85748
346.328	13.88719
346.786	6.89508
347.243	7.4989
347.7	-34.99253
348.157	-7.14159
348.614	25.22108
349.071	42.49807
349.528	42.04121
349.985	55.79038
350.442	24.99689
350.899	36.35961
351.356	63.3292
351.812	0
352.269	25.60667
352.726	33.64926
353.182	-20.5849
353.639	22.47618
354.095	31.45687
354.552	-0.9899
355.008	7.46177
355.465	7.62548
355.921	22.0753
356.377	36.77762
356.833	48.10798
357.289	55.07897
357.745	23.3607
358.201	14.84896
358.657	22.13808
359.113	27.18852
359.569	34.30046
360.025	-9.56283
360.481	34.29468
360.937	11.3176
361.392	48.24732
361.848	23.80201
362.303	30.19514
362.759	48.36186
363.214	33.77398
363.67	55.65005
364.125	42.84631
364.581	34.56047
365.036	43.12245
365.491	54.53201
365.946	51.28733
366.401	39.92545
366.856	44.25904
367.311	42.11771
367.766	44.14329
368.221	46.22029
368.676	47.391
369.131	45.81612
369.586	52.53731
370.041	53.75072
370.495	50.90106
370.95	46.921
371.404	49.831
371.859	52.43489
372.313	46.96906
372.768	50.53964
373.222	54.96348
373.676	49.26825
374.131	52.82877
374.585	52.44055
375.039	52.7482
375.493	54.91928
375.947	51.25268
376.401	54.76748
376.855	52.35145
377.309	53.18341
377.763	48.52286
378.217	53.64092
378.67	52.72133
379.124	55.70211
379.578	52.40571
380.031	53.81651
380.485	50.25563
380.938	52.84496
381.392	51.43997
381.845	53.8036
382.299	53.65054
382.752	51.39121
383.205	53.88829
383.658	51.88845
384.111	54.31746
384.564	51.41266
385.018	52.16851
385.471	51.30891
385.923	53.92787
386.376	53.00522
386.829	51.43087
387.282	53.01772
387.735	53.71923
388.187	53.90753
388.64	52.6179
389.093	53.81252
389.545	53.32658
389.998	52.86753
390.45	54.45396
390.902	53.93093
391.355	54.45894
391.807	53.89778
392.259	53.70071
392.711	54.22195
393.163	53.70466
393.615	54.13622
394.068	54.67088
394.519	53.94314
394.971	52.29749
395.423	53.84318
395.875	53.70806
396.327	53.93322
396.779	53.08512
397.23	53.46587
397.682	53.69879
398.133	54.38645
398.585	53.40114
399.036	53.60532
399.488	53.5226
399.939	54.40041
400.39	53.23968
400.842	51.87794
401.293	53.4672
401.744	53.21289
402.195	53.2414
402.646	52.90816
403.097	52.87312
403.548	52.49641
403.999	53.16856
404.45	53.27162
404.9	53.1262
405.351	52.72855
405.802	52.41457
406.253	52.82264
406.703	52.37829
407.154	52.16167
407.604	52.74891
408.055	52.1076
408.505	52.00818
408.955	51.40073
409.406	51.57613
409.856	52.11956
410.306	50.93201
410.756	51.34887
411.206	51.28414
411.656	50.81844
412.106	50.81873
412.556	50.17117
413.006	50.53497
413.456	50.49253
413.905	50.16535
414.355	49.64447
414.805	50.33206
415.254	49.83326
415.704	50.72064
416.153	50.48771
416.603	49.66515
417.052	49.39169
417.502	49.29663
417.951	49.45568
418.4	49.04554
418.849	48.62415
419.298	48.92687
419.748	48.92164
420.197	48.65179
420.646	48.38418
421.094	48.21374
421.543	48.17271
421.992	47.90626
422.441	47.78077
422.89	47.7404
423.338	48.35114
423.787	47.18525
424.236	47.09372
424.684	47.26332
425.133	47.18087
425.581	47.14233
426.029	46.23238
426.478	46.55145
426.926	46.23525
427.374	46.44473
427.822	46.11404
428.27	46.64417
428.718	45.98793
429.166	46.16412
429.614	46.58889
430.062	45.81649
430.51	45.75646
430.958	45.60695
431.406	45.68749
431.853	45.42391
432.301	45.74799
432.749	45.57628
433.196	45.04071
433.644	45.297
434.091	45.06639
434.538	45.49372
434.986	45.04598
435.433	45.08529
435.88	44.98861
436.327	44.36669
436.775	44.75964
437.222	44.50935
437.669	44.96382
438.116	44.41632
438.563	44.68703
439.009	44.53858
439.456	44.43904
439.903	44.52476
440.35	44.03448
440.796	44.11902
441.243	44.69
441.689	44.51535
442.136	44.43452
442.582	44.72212
443.029	44.57333
443.475	44.00048
443.921	44.67999
444.368	44.25562
444.814	44.12512
445.26	44.28519
445.706	44.46001
446.152	44.42646
446.598	44.50822
447.044	44.46092
447.49	44.61872
447.936	44.03765
448.381	44.47008
448.827	44.53821
449.273	44.85039
449.718	44.17778
450.164	44.18723
450.61	44.3699
451.055	44.45278
451.5	44.49548
451.946	44.68893
452.391	44.4681
452.836	44.33148
453.282	44.3028
453.727	44.29305
454.172	44.62014
454.617	44.57473
455.062	44.40391
455.507	44.73008
455.952	44.54549
456.396	44.86263
456.841	44.63246
457.286	44.93404
457.731	44.84838
458.175	44.95557
458.62	44.78386
459.064	44.99544
459.509	44.88332
459.953	44.68786
460.398	44.94408
460.842	44.66317
461.286	44.89068
461.73	45.14586
462.174	45.09016
462.619	44.85699
463.063	45.23646
463.507	45.3522
463.951	45.87193
464.394	45.44986
464.838	45.63719
465.282	46.39635
465.726	45.64358
466.17	45.98811
466.613	46.32655
467.057	46.51714
467.5	46.87473
467.944	46.92922
468.387	46.35778
468.831	46.9879
469.274	47.39751
469.717	47.28092
470.16	47.12624
470.603	47.44154
471.047	47.66142
471.49	47.72049
471.933	48.05722
472.376	48.41648
472.818	48.76225
473.261	48.76448
473.704	48.62311
474.147	49.17051
474.59	48.71919
475.032	49.18031
475.475	49.48113
475.917	49.55885
476.36	49.34326
476.802	49.48508
477.245	49.89272
477.687	49.65454
478.129	49.9374
478.571	50.26978
479.013	50.80948
479.456	50.8297
479.898	50.99716
480.34	51.77412
480.782	51.52042
481.224	51.88934
481.665	52.15659
482.107	52.16134
482.549	52.70826
482.991	52.38528
483.432	52.47312
483.874	52.37065
484.315	52.69587
484.757	52.82411
485.198	52.92526
485.64	53.22913
486.081	53.5321
486.522	53.55483
486.963	53.79375
487.405	53.29174
487.846	53.59888
488.287	53.99647
488.728	53.61444
489.169	53.98321
489.61	54.19069
490.05	54.42345
490.491	54.26878
490.932	54.60669
491.373	54.67745
491.813	54.60777
492.254	54.27126
492.694	54.58352
493.135	55.15161
493.575	54.49366
494.016	54.71513
494.456	55.12615
494.896	55.35576
495.336	55.66232
495.777	55.6243
496.217	56.00625
496.657	55.34836
497.097	56.14395
497.537	55.8157
497.977	56.10602
498.416	55.89947
498.856	56.43949
499.296	56.44229
499.736	56.67268
500.175	56.82454
500.615	56.26694
501.054	56.34108
501.494	56.53096
501.933	57.02565
502.373	56.79488
502.812	56.81413
503.251	56.93355
503.69	57.15283
504.129	57.98401
504.569	57.53737
505.008	58.07006
505.447	58.86605
505.886	58.44705
506.324	58.63213
506.763	58.75235
507.202	59.80856
507.641	59.26553
508.079	59.78213
508.518	60.26058
508.957	59.75351
509.395	60.39064
509.834	60.81869
510.272	60.78679
510.71	61.53182
511.149	61.22974
511.587	61.14513
512.025	61.27281
512.463	61.48013
512.901	61.65604
513.339	61.81071
513.777	63.03448
514.215	62.97627
514.653	62.50797
515.091	63.50693
515.529	63.63277
515.966	63.75307
516.404	63.51601
516.842	64.22684
517.279	64.48965
517.717	64.13553
518.154	64.96967
518.592	65.04391
519.029	65.41923
519.466	65.32233
519.904	65.53694
520.341	65.94706
520.778	65.92042
521.215	66.36311
521.652	67.04539
522.089	67.17204
522.526	67.35554
522.963	67.37927
523.399	67.4859
523.836	67.68572
524.273	67.87748
524.71	68.46395
525.146	68.70701
525.583	69.00033
526.019	68.86544
526.456	69.20676
526.892	69.60522
527.328	69.78902
527.765	69.6277
528.201	69.86999
528.637	70.75709
529.073	70.94345
529.509	71.06006
529.945	70.60921
530.381	71.52782
530.817	71.34004
531.253	71.14161
531.689	71.81824
532.124	72.02116
532.56	72.52628
532.996	73.21559
533.431	72.4533
533.867	73.18006
534.302	73.23134
534.738	73.25532
535.173	73.68232
535.608	73.53785
536.044	73.97082
536.479	74.2664
536.914	74.25832
537.349	74.22781
537.784	74.11091
538.219	74.03874
538.654	74.12702
539.089	74.32003
539.524	74.47072
539.959	75.12872
540.393	74.62367
540.828	74.47048
541.263	74.8257
541.697	74.74468
542.132	75.10019
542.566	75.50072
543.001	75.1094
543.435	75.31674
543.869	75.40868
544.303	75.24039
544.738	74.92454
545.172	75.36329
545.606	74.94975
546.04	75.61866
546.474	75.35191
546.908	74.80253
547.342	74.6327
547.775	74.87929
548.209	75.09213
548.643	74.54966
549.077	74.64888
549.51	74.07769
549.944	74.533
550.377	74.75541
550.811	74.20127
551.244	74.30402
551.677	73.99072
552.111	73.67902
552.544	73.82846
552.977	73.74126
553.41	73.03145
553.843	73.80051
554.276	73.30277
554.709	72.95477
555.142	73.41538
555.575	73.76157
556.008	73.05385
556.44	72.84066
556.873	72.23873
557.306	72.50955
557.738	71.89342
558.171	71.71987
558.603	71.63812
559.036	71.21882
559.468	71.04884
559.9	70.75425
560.333	70.46709
560.765	70.4313
561.197	70.0533
561.629	70.02016
562.061	70.11214
562.493	69.56952
562.925	69.37361
563.357	69.64558
563.789	68.85593
564.22	68.77927
564.652	68.64651
565.084	68.43163
565.515	68.51209
565.947	68.5863
566.378	68.19824
566.81	68.49024
567.241	67.39993
567.672	67.32724
568.104	67.46619
568.535	67.12464
568.966	66.47911
569.397	66.99176
569.828	66.64621
570.259	66.17267
570.69	65.71017
571.121	65.72834
571.552	65.54978
571.983	65.45402
572.414	65.00033
572.844	64.72911
573.275	64.78557
573.705	64.48577
574.136	64.25184
574.566	63.81923
574.997	63.87648
575.427	63.69005
575.857	63.25977
576.288	63.00101
576.718	62.72848
577.148	62.8006
577.578	62.95935
578.008	62.15241
578.438	61.93534
578.868	61.68549
579.298	61.6208
579.728	60.95084
580.157	61.36903
580.587	61.11184
581.017	61.17914
581.446	60.53839
581.876	60.32011
582.305	60.17902
582.735	60.34733
583.164	59.72866
583.593	58.98787
584.023	59.52508
584.452	59.26977
584.881	59.22865
585.31	58.90171
585.739	58.44462
586.168	58.38777
586.597	58.19115
587.026	58.12723
587.455	58.07587
587.884	57.72644
588.312	57.55109
588.741	57.25949
589.17	56.77296
589.598	57.02238
590.027	57.11669
590.455	56.72412
590.884	57.0335
591.312	56.36182
591.74	56.18248
592.168	56.36986
592.597	55.70217
593.025	55.50024
593.453	55.55495
593.881	55.07718
594.309	55.09341
594.737	54.52816
595.165	54.14728
595.592	54.07609
596.02	53.85555
596.448	54.17141
596.875	54.07772
597.303	53.2976
597.73	53.16678
598.158	53.38566
598.585	53.26443
599.013	52.97321
599.44	53.02631
599.867	52.85043
600.294	52.55238
600.722	52.56839
601.149	52.27637
601.576	52.4144
602.003	52.00913
602.43	51.76835
602.856	51.83062
603.283	51.87087
603.71	51.4331
604.137	51.21295
604.563	51.1858
604.99	51.43362
605.416	51.01369
605.843	50.81332
606.269	50.3602
606.696	50.32559
607.122	49.95684
607.548	49.56138
607.975	50.33174
608.401	49.81747
608.827	49.3552
609.253	49.77508
609.679	49.65936
610.105	49.2124
610.531	49.23822
610.956	49.22218
611.382	48.92654
611.808	49.06162
612.234	48.64759
612.659	48.30883
613.085	48.87982
613.51	48.35014
613.936	48.31181
614.361	48.62742
614.786	48.34336
615.212	48.12615
615.637	47.65586
616.062	48.09742
616.487	48.02631
616.912	48.40366
617.337	48.21048
617.762	47.86201
618.187	47.58604
618.612	47.53249
619.037	47.49295
619.461	47.3193
619.886	47.37949
620.311	47.45071
620.735	47.13573
621.16	47.50454
621.584	46.88906
622.008	46.63619
622.433	47.07215
622.857	46.88315
623.281	47.03858
623.705	47.31693
624.13	46.86414
624.554	46.74928
624.978	46.65534
625.402	46.74688
625.826	46.91359
626.249	46.80291
626.673	46.92256
627.097	47.11309
627.521	47.09663
627.944	46.82869
628.368	46.67033
628.791	46.81253
629.215	46.72935
629.638	46.7348
630.061	46.67348
630.485	46.36931
630.908	46.51878
631.331	46.74821
631.754	46.24447
632.177	46.70227
632.6	46.56632
633.023	46.83652
633.446	46.48627
633.869	47.24945
634.292	47.18945
634.715	47.39858
635.137	46.96191
635.56	47.14445
635.982	46.99308
636.405	46.93427
636.827	47.1573
637.25	47.30012
637.672	47.01656
638.094	47.44926
638.517	47.08567
638.939	47.80915
639.361	47.41494
639.783	47.39846
640.205	47.63722
640.627	47.46575
641.049	47.51759
641.471	47.3894
641.893	47.73028
642.314	47.95639
642.736	47.93098
643.158	47.89372
643.579	48.25429
644.001	48.17736
644.422	48.36852
644.844	48.33744
645.265	48.77666
645.686	48.41159
646.107	48.65917
646.529	49.04479
646.95	49.33486
647.371	49.3555
647.792	49.23028
648.213	49.35935
648.634	49.34504
649.055	49.71722
649.475	49.95974
649.896	49.89873
650.317	50.49644
650.737	49.8858
651.158	50.67122
651.578	50.4384
651.999	50.70347
652.419	50.6276
652.84	50.98458
653.26	50.83647
653.68	51.14408
654.1	51.22851
654.521	51.84523
654.941	51.50188
655.361	51.8262
655.781	51.70384
656.2	51.64494
656.62	52.21701
657.04	51.90403
657.46	51.97923
657.879	51.92466
658.299	52.99851
658.719	52.80745
659.138	52.89089
659.558	53.28399
659.977	53.03056
660.396	53.17426
660.816	53.45382
661.235	53.0564
661.654	53.47457
662.073	53.72249
662.492	54.04141
662.911	54.21594
663.33	54.19685
663.749	54.13283
664.168	54.27644
664.587	53.84626
665.006	54.68541
665.424	54.7819
665.843	54.54755
666.261	54.91512
666.68	54.80039
667.098	55.57251
667.517	54.95255
667.935	55.18075
668.353	54.64012
668.772	54.8005
669.19	54.7981
669.608	55.16131
670.026	55.42327
670.444	55.59935
670.862	55.53927
671.28	55.34794
671.698	55.95768
672.115	55.98688
672.533	55.64744
672.951	56.02775
673.368	55.59642
673.786	55.67287
674.203	55.24705
674.621	55.96888
675.038	55.55732
675.456	55.86919
675.873	55.5637
676.29	56.13914
676.707	56.20441
677.124	55.82968
677.541	55.62907
677.958	55.48709
678.375	55.83759
678.792	55.61425
679.209	55.67533
679.626	55.93004
680.043	55.70298
680.459	55.72729
680.876	55.34497
681.292	55.73034
681.709	55.89762
682.125	55.68424
682.542	55.80978
682.958	55.06801
683.374	55.43626
683.79	55.03718
684.207	54.99561
684.623	55.44471
685.039	54.85887
685.455	55.40569
685.871	54.43596
686.286	55.01221
686.702	54.33653
687.118	54.63338
687.534	55.0708
687.949	54.61801
688.365	54.21762
688.781	54.0717
689.196	53.94924
689.611	53.43289
690.027	53.75418
690.442	53.02767
690.857	53.67798
691.273	52.99398
691.688	53.34839
692.103	53.31344
692.518	52.26909
692.933	52.97666
693.348	52.12311
693.763	52.11548
694.177	52.18853
694.592	51.7996
695.007	51.24548
695.421	51.20521
695.836	50.93791
696.25	50.33692
696.665	50.35823
697.079	50.08871
697.494	50.44121
697.908	49.72799
698.322	50.19716
698.736	49.15539
699.151	49.19064
699.565	49.1838
699.979	49.75746
700.393	49.05437
700.806	48.87613
701.22	48.70105
701.634	48.12424
702.048	48.95443
702.461	48.04879
702.875	48.4003
703.289	47.69165
703.702	48.23732
704.116	47.5854
704.529	47.76565
704.942	46.69988
705.356	47.08617
705.769	46.43511
706.182	46.7399
706.595	46.4401
707.008	46.16431
707.421	45.99853
707.834	44.97942
708.247	45.30443
708.66	44.7031
709.072	45.33466
709.485	44.4039
709.898	44.67059
710.31	43.61211
710.723	43.63299
711.135	43.40654
711.548	43.66849
711.96	42.65364
712.373	42.72967
712.785	42.25227
713.197	41.95283
713.609	41.52211
714.021	41.46237
714.433	41.02006
714.845	40.83643
715.257	40.87293
715.669	40.82799
716.081	40.36403
716.493	39.92895
716.904	39.79231
717.316	39.50091
717.727	39.72342
718.139	39.16594
718.55	38.67196
718.962	38.66808
719.373	39.00189
719.784	38.03987
720.196	38.4608
720.607	38.02093
721.018	37.90506
721.429	37.16479
721.84	37.26517
722.251	36.87672
722.662	36.88501
723.073	36.20878
723.483	36.65007
723.894	35.95994
724.305	35.46326
724.715	35.5032
725.126	35.26219
725.536	34.7573
725.947	34.73834
726.357	34.57701
726.768	34.53628
727.178	33.9963
727.588	34.02988
727.998	33.36536
728.408	33.42429
728.818	32.97928
729.228	33.26029
729.638	33.1002
730.048	33.1107
730.458	32.84723
730.868	32.51603
731.277	32.23923
731.687	32.36911
732.097	32.1082
732.506	31.65578
732.916	31.55866
733.325	31.42696
733.734	31.71506
734.144	31.39414
734.553	31.06079
734.962	30.4025
735.371	30.41965
735.78	30.26276
736.189	30.25332
736.598	29.50895
737.007	30.29434
737.416	29.43986
737.825	29.76909
738.233	29.3421
738.642	29.69846
739.051	28.91768
739.459	29.39503
739.868	28.94504
740.276	29.01305
740.684	28.90713
741.093	28.70613
741.501	28.31992
741.909	28.73119
742.317	28.4614
742.725	28.3718
743.133	28.14798
743.541	27.76411
743.949	27.93955
744.357	27.55819
744.765	27.87481
745.173	27.28423
745.58	27.78472
745.988	27.07629
746.396	27.33428
746.803	26.97092
747.211	27.45308
747.618	26.76213
748.025	27.07586
748.433	26.7443
748.84	26.36021
749.247	26.36826
749.654	26.08948
750.061	26.66813
750.468	25.77994
750.875	26.1852
751.282	25.46372
751.689	26.13032
752.096	25.50819
752.502	25.94033
752.909	25.33559
753.316	25.46298
753.722	25.43795
754.129	25.48526
754.535	25.61989
754.941	25.16422
755.348	25.84829
755.754	24.79769
756.16	24.99953
756.566	24.17585
756.972	24.94739
757.378	24.63777
757.784	25.04585
758.19	24.72654
758.596	24.54641
759.002	24.63696
759.408	24.22481
759.813	24.67933
760.219	24.10009
760.624	24.6921
761.03	23.90668
761.435	24.34265
761.841	23.70387
762.246	23.72613
762.651	24.06226
763.057	23.6492
763.462	24.79728
763.867	24.43709
764.272	24.60547
764.677	24.51218
765.082	24.90042
765.487	24.45586
765.892	24.37373
766.296	24.16662
766.701	23.84657
767.106	24.32209
767.51	23.43568
767.915	24.07027
768.319	23.89237
768.724	24.33014
769.128	24.05914
769.532	23.45021
769.936	23.78773
770.341	23.42033
770.745	24.03567
771.149	23.4279
771.553	23.70981
771.957	23.6658
772.361	23.47486
772.764	23.98837
773.168	23.24333
773.572	23.82807
773.976	23.32632
774.379	23.48474
774.783	23.06256
775.186	22.96211
775.59	23.44197
775.993	23.06746
776.396	23.68104
776.8	23.03746
777.203	23.58383
777.606	22.75897
778.009	23.21125
778.412	23.21261
778.815	22.65833
779.218	23.58715
779.621	22.92134
780.023	23.33148
780.426	22.87438
780.829	23.27983
781.231	23.49251
781.634	22.65628
782.036	23.45916
782.439	22.95952
782.841	22.87843
783.244	23.15083
783.646	22.60365
784.048	23.55709
784.45	22.86172
784.852	23.07122
785.254	22.52932
785.656	23.1559
786.058	22.80574
786.46	22.4172
786.862	22.56682
787.264	22.26876
787.665	22.66757
788.067	23.02867
788.468	22.83573
788.87	22.8963
789.271	22.8828
789.673	23.25257
790.074	23.02652
790.475	22.93475
790.877	23.23153
791.278	22.36
791.679	23.15414
792.08	22.70551
792.481	22.97035
792.882	23.01255
793.283	22.83848
793.683	22.9595
794.084	22.72434
794.485	22.78695
794.886	23.05209
795.286	22.62691
795.687	23.33808
796.087	22.33179
796.487	23.17278
796.888	23.01525
797.288	22.52957
797.688	23.08297
798.088	22.74037
798.489	23.34364
798.889	23.03828
799.289	22.64187
799.689	23.51692
800.088	22.85797
800.488	23.09288
800.888	23.22895
801.288	22.77713
801.687	23.40637
802.087	23.23592
802.486	23.18172
802.886	23.10741
803.285	23.35776
803.685	23.44938
804.084	23.17626
804.483	23.03708
804.882	23.30972
805.281	22.76154
805.68	23.90079
806.079	22.91673
806.478	23.69923
806.877	23.61655
807.276	23.18398
807.675	23.9761
808.074	23.23508
808.472	23.67598
808.871	23.90833
809.269	23.1523
809.668	23.55446
810.066	23.797
810.465	23.35411
810.863	23.59304
811.261	23.4051
811.659	23.33348
812.057	23.54025
812.455	23.68515
812.853	23.35393
813.251	23.23733
813.649	23.20645
814.047	23.75267
814.445	23.20456
814.843	23.16982
815.24	23.05048
815.638	22.97916
816.035	23.98521
816.433	23.20837
816.83	23.21101
817.228	23.24536
817.625	23.64269
818.022	23.7352
818.419	23.29813
818.816	23.42198
819.213	23.72398
819.61	23.25528
820.007	23.86023
820.404	24.01725
820.801	23.83082
821.198	24.55397
821.595	24.14138
821.991	24.2819
822.388	24.87655
822.784	24.69019
823.181	25.37701
823.577	25.42758
823.974	25.17076
824.37	25.76304
824.766	25.32485
825.162	25.06074
825.558	25.02724
825.954	24.39604
826.35	24.84028
826.746	25.00448
827.142	24.90519
827.538	25.52436
827.934	25.36682
828.33	25.0358
828.725	25.1442
829.121	25.00172
829.516	24.55766
829.912	24.8986
830.307	24.36328
830.703	24.66888
831.098	24.35869
831.493	24.08868
831.888	24.33853
832.283	23.87458
832.678	24.08427
833.073	24.22472
833.468	24.14362
833.863	24.43749
834.258	24.97228
834.653	24.59103
835.048	25.12653
835.442	24.90091
835.837	24.76976
836.231	25.04238
836.626	24.71324
837.02	24.89619
837.415	24.94698
837.809	24.37714
838.203	24.68324
838.597	24.42254
838.991	23.73671
839.385	24.16362
839.779	24.38657
840.173	24.06565
840.567	24.94262
840.961	24.76055
841.355	24.82181
841.748	25.55328
842.142	24.81133
842.536	25.10674
842.929	25.59333
843.323	24.71475
843.716	24.83983
844.109	25.75232
844.503	25.66966
844.896	25.1496
845.289	25.3815
845.682	25.01071
846.075	25.06156
846.468	24.78201
846.861	25.44496
847.254	25.55451
847.647	25.3191
848.04	25.54329
848.432	25.75581
848.825	25.36375
849.217	25.19734
849.61	25.85411
850.002	24.91804
850.395	24.5853
850.787	25.40711
851.179	24.89621
851.572	25.81072
851.964	25.91638
852.356	25.3265
852.748	25.87963
853.14	24.74979
853.532	25.19057
853.924	25.20892
854.315	25.44881
854.707	24.61194
855.099	25.06569
855.491	25.75891
855.882	25.31954
856.274	24.85545
856.665	25.12684
857.056	25.25509
857.448	25.1256
857.839	26.28881
858.23	25.36975
858.621	25.66108
859.012	25.84446
859.403	25.1427
859.794	25.98032
860.185	25.82322
860.576	24.8739
860.967	26.0069
861.358	25.12746
861.748	25.90439
862.139	26.04172
862.529	25.45713
862.92	25.52116
863.31	25.97833
863.701	26.08752
864.091	25.10452
864.481	26.24917
864.872	25.52086
865.262	24.52248
865.652	25.07154
866.042	25.05697
866.432	24.85629
866.822	26.02297
867.211	25.54535
867.601	25.29931
867.991	26.47301
868.381	25.37852
868.77	25.38526
869.16	25.6008
869.549	25.01016
869.939	24.82019
870.328	25.58995
870.717	25.69346
871.106	25.20099
871.496	25.67636
871.885	25.26136
872.274	25.01424
872.663	25.69459
873.052	25.52757
873.441	24.7772
873.829	25.2925
874.218	25.47741
874.607	24.93777
874.996	24.87787
875.384	25.74596
875.773	25.02767
876.161	25.40897
876.549	25.19347
876.938	25.07628
877.326	25.04395
877.714	25.46563
878.102	24.52672
878.491	24.5682
878.879	25.23285
879.267	24.49039
879.655	24.82186
880.042	25.66976
880.43	25.58575
880.818	25.17044
881.206	25.83852
881.593	25.79641
881.981	25.82395
882.368	25.99269
882.756	26.02142
883.143	25.76608
883.53	25.90345
883.918	26.23287
884.305	25.2414
884.692	25.8153
885.079	25.69252
885.466	24.96398
885.853	25.38911
886.24	25.87626
886.627	25.02196
887.014	24.72647
887.4	25.34158
887.787	25.8097
888.174	24.7294
888.56	25.07737
888.947	25.8417
889.333	24.65236
889.719	25.0103
890.106	24.95852
890.492	24.38023
890.878	24.84496
891.264	24.82279
891.65	24.29535
892.036	24.48123
892.422	25.28104
892.808	24.18512
893.194	24.20591
893.58	25.38101
893.965	24.76871
894.351	24.35021
894.736	24.81072
895.122	24.75279
895.507	24.54218
895.893	24.88452
896.278	25.02973
896.663	24.4261
897.049	25.38922
897.434	24.61436
897.819	24.57112
898.204	24.51055
898.589	24.63895
898.974	24.4643
899.359	24.44452
899.743	24.13554
900.128	24.85066
900.513	23.93961
900.897	24.19334
901.282	24.19069
901.667	24.28871
902.051	24.2405
902.435	24.28219
902.82	24.04535
903.204	23.53809
903.588	24.44473
903.972	24.30659
904.356	23.93232
904.74	24.3837
905.124	24.67209
905.508	24.81244
905.892	24.48377
906.276	24.99668
906.659	24.57479
907.043	24.35814
907.427	24.8561
907.81	25.09285
908.194	24.43912
908.577	24.43463
908.96	25.54197
909.344	25.26306
909.727	24.32524
910.11	24.99847
910.493	24.65727
910.876	24.23668
911.259	24.95474
911.642	24.51421
912.025	24.24637
912.408	23.88218
912.79	24.81827
913.173	23.53372
913.556	24.34508
913.938	24.78776
914.321	24.43619
914.703	23.96705
915.086	24.47759
915.468	24.6497
915.85	24.13703
916.232	24.31081
916.614	24.27069
916.996	24.59744
917.378	23.77164
917.76	24.17614
918.142	24.33707
918.524	24.29041
918.906	23.8168
919.288	24.49913
919.669	24.56167
920.051	24.01639
920.432	24.27172
920.814	24.39222
921.195	24.17143
921.577	24.31988
921.958	24.36846
922.339	23.96197
922.72	24.59008
923.101	24.33727
923.482	24.31151
923.863	23.43739
924.244	24.11941
924.625	24.42944
925.006	24.85133
925.387	23.48306
925.767	24.20676
926.148	24.19389
926.528	23.29055
926.909	24.22774
927.289	23.74145
927.67	23.52558
928.05	23.75804
928.43	22.96661
928.81	24.41361
929.191	23.69992
929.571	23.75302
929.951	22.98605
930.331	24.06367
930.71	23.13653
931.09	23.81976
931.47	24.75765
931.85	23.18363
932.229	22.87577
932.609	24.35911
932.988	23.80404
933.368	23.33056
933.747	24.1052
934.127	23.6277
934.506	23.75221
934.885	22.53991
935.264	24.86081
935.643	23.18696
936.022	23.5619
936.401	23.51957
936.78	24.00467
937.159	23.29086
937.538	23.06948
937.916	23.04208
938.295	24.6383
938.674	23.62316
939.052	23.63566
939.431	24.13888
939.809	23.24543
940.187	23.32669
940.566	23.40091
940.944	23.78623
941.322	23.65539
941.7	22.52074
942.078	21.45385
942.456	23.46988
942.834	24.82407
943.212	22.98984
943.59	23.87158
943.968	23.5809
944.345	21.83869
944.723	22.15558
945.1	22.60634
945.478	22.52388
945.855	22.06602
946.233	22.76548
946.61	21.92981
946.987	20.7161
947.365	22.42513
947.742	20.50718
948.119	22.26246
948.496	22.32687
948.873	22.34587
949.25	21.61113
949.626	23.65151
950.003	20.44623
950.38	21.94149
950.756	21.70529
951.133	20.98616
951.51	20.02407
951.886	20.98932
952.262	22.61372
952.639	22.95672
953.015	20.55278
953.391	20.38261
953.767	21.27651
954.143	20.9172
954.519	20.37185
954.895	20.61274
955.271	22.71416
955.647	18.98023
956.023	21.34258
956.399	19.92408
956.774	21.71897
957.15	19.25596
957.525	19.96083
957.901	19.73064
958.276	21.26074
958.652	20.64507
959.027	20.45221
959.402	21.32642
959.777	18.85175
960.152	22.49674
960.527	20.69914
960.902	19.70574
961.277	20.30689
961.652	20.39978
962.027	20.09154
962.402	20.46339
962.776	20.72695
963.151	19.78967
963.525	20.38921
963.9	22.30142
964.274	22.13246
964.649	21.96166
965.023	18.68177
965.397	22.81416
965.771	20.33805
966.146	20.56789
966.52	19.60202
966.894	19.41653
967.268	22.35681
967.641	20.31002
968.015	21.07166
968.389	20.87165
968.763	20.23281
969.136	20.34968
969.51	21.59623
969.883	20.59057
970.257	17.81159
970.63	20.32001
971.003	19.42395
971.377	22.60311
971.75	19.32315
972.123	20.86908
972.496	19.20282
972.869	20.04288
973.242	20.74518
973.615	19.42852
973.988	19.11462
974.36	19.37334
974.733	19.29853
975.106	19.91532
975.478	20.97931
975.851	20.11684
976.223	18.62833
976.596	17.72258
976.968	19.76927
977.34	21.37453
977.712	19.73947
978.085	18.90768
978.457	20.03841
978.829	20.72513
979.201	19.96949
979.573	19.483
979.944	20.01257
980.316	19.17622
980.688	21.37433
981.059	20.83358
981.431	19.32325
981.803	21.85046
982.174	19.9461
982.545	20.74984
982.917	22.64568
983.288	19.56671
983.659	19.451
984.03	21.20691
984.401	20.34019
984.772	20.76108
985.143	17.79159
985.514	21.80985
985.885	18.19937
986.256	21.55055
986.627	19.72459
986.997	20.02276
987.368	18.46032
987.738	19.36516
988.109	19.73566
988.479	17.61729
988.85	19.63712
989.22	17.90227
989.59	19.06618
989.96	17.67513
990.33	18.64116
990.7	19.3145
991.07	18.85419
991.44	18.84248
991.81	18.9571
992.18	19.14908
992.549	19.35323
992.919	20.89781
993.289	18.61375
993.658	18.83252
994.028	20.11502
994.397	18.08134
994.766	19.19729
995.136	21.16296
995.505	19.58604
995.874	20.23791
996.243	18.88289
996.612	18.56359
996.981	17.17171
997.35	19.69958
997.719	18.93234
998.088	20.29426
998.456	18.66411
998.825	20.98868
999.194	19.12108
999.562	19.23942
999.931	21.86821
1000.299	18.60767
1000.667	20.55222
1001.036	17.69195
1001.404	17.90507
1001.772	20.43296
1002.14	19.57102
1002.508	21.01202
1002.876	18.1378
1003.244	17.46627
1003.612	14.06116
1003.98	20.28973
1004.347	18.6834
1004.715	18.44196
1005.083	16.64725
1005.45	18.54496
1005.818	19.26452
1006.185	22.29309
1006.552	18.49364
1006.92	19.35845
1007.287	17.61447
1007.654	18.90231
1008.021	17.99823
1008.388	18.88647
1008.755	18.04895
1009.122	19.74569
1009.489	16.74901
1009.856	19.69525
1010.222	16.85036
1010.589	16.64472
1010.956	20.04204
1011.322	16.07066
1011.689	21.96722
1012.055	15.23463
1012.421	15.86858
1012.788	16.21832
1013.154	19.0089
1013.52	17.06327
1013.886	22.49205
1014.252	17.40668
1014.618	18.92188
1014.984	19.02398
1015.35	20.52811
1015.716	19.11758
1016.081	20.63255
1016.447	18.76905
1016.813	21.65566
1017.178	18.50051
1017.544	19.82339
1017.909	16.97763
1018.274	22.36922
1018.64	12.73973
1019.005	19.9265
1019.37	15.10881
1019.735	21.80018
1020.1	17.2416
1020.465	15.48804
1020.83	20.54077
1021.195	20.88105
1021.56	23.98475
1021.924	19.50585
1022.289	8.22365
1022.654	14.3168
1023.018	14.24778
1023.383	21.76806
1023.747	20.83779
1024.111	20.5653
1024.476	22.54922
1024.84	13.55855
1025.204	20.26158
1025.568	13.15783
1025.932	12.32279
1026.296	14.74457
1026.66	19.33324
1027.024	17.65777
1027.387	11.7043
1027.751	14.70723
1028.115	19.57262
1028.478	15.02426
1028.842	17.04465
1029.205	22.99312
1029.569	19.81137
1029.932	17.70334
1030.295	13.59415
1030.659	11.04759
1031.022	18.67287
1031.385	31.21732
1031.748	19.2811
1032.111	5.06503
1032.474	17.69733
1032.836	18.49746
1033.199	13.60373
1033.562	11.37479
1033.924	14.0122
1034.287	18.35578
1034.65	15.47577
1035.012	13.43234
1035.374	34.75472
1035.737	18.19795
1036.099	18.43354
1036.461	20.92483
1036.823	12.38453
1037.185	21.4179
1037.547	6.59698
1037.909	5.60414
1038.271	22.99702
1038.633	8.21484
1038.995	29.36193
1039.356	22.83697
1039.718	15.45643
1040.08	5.74746
1040.441	11.34193
1040.803	5.24195
1041.164	13.08475
1041.525	14.12751
1041.886	-15.41583
1042.248	17.28573
1042.609	4.34556
1042.97	10.91588
1043.331	15.6068
1043.692	13.35677
1044.053	23.49866
1044.413	14.10698
1044.774	29.46661
1045.135	11.58327
1045.495	14.7938
1045.856	6.97399
1046.216	-3.86309
1046.577	11.70718
1046.937	18.5995
1047.298	5.16226
