Data from 1017water_Reflection__23__21-02-33-382.txt Node

Date: Fri Oct 17 21:02:33 AST 2025
User: lin
Spectrometer: SR600411
Trigger mode: 0
Integration Time (sec): 5.846600E-2
Scans to average: 5
Nonlinearity correction enabled: true
Boxcar width: 0
Storing dark spectrum: false
XAxis mode: Wavelengths
Number of Pixels in Spectrum: 2048
>>>>>Begin Spectral Data<<<<<
187.982	53.70167
188.456	55.54457
188.93	42.75024
189.403	61.7106
189.877	43.02266
190.351	47.18911
190.825	54.88948
191.298	37.33789
191.772	49.98774
192.246	43.53052
192.719	41.81691
193.193	45.84028
193.666	54.98825
194.139	33.03701
194.613	50.9399
195.086	52.49363
195.559	47.69703
196.033	59.48686
196.506	48.45007
196.979	49.49424
197.452	66.17517
197.925	59.71554
198.398	46.69773
198.871	72.02738
199.344	47.39666
199.816	60.51822
200.289	44.3398
200.762	38.93398
201.235	54.90609
201.707	58.95213
202.18	28.16956
202.652	41.27083
203.125	31.47457
203.597	31.05502
204.07	39.65634
204.542	22.81967
205.014	48.29895
205.486	38.36405
205.959	43.77876
206.431	45.90415
206.903	60.50213
207.375	9.5565
207.847	52.93448
208.319	40.32287
208.791	32.10539
209.263	16.79028
209.734	52.51113
210.206	-4.54442
210.678	49.99268
211.15	-2.38035
211.621	20.54324
212.093	32.22619
212.564	50.37521
213.036	35.39312
213.507	58.77669
213.979	46.58658
214.45	32.87034
214.921	19.99683
215.392	34.42079
215.864	39.31072
216.335	48.88444
216.806	37.25019
217.277	44.9488
217.748	35.51942
218.219	23.80576
218.69	56.20479
219.161	-1.51495
219.631	45.18722
220.102	35.65306
220.573	15.62166
221.043	-6.4092
221.514	5.64386
221.985	0
222.455	24.03471
222.926	32.72248
223.396	43.74377
223.866	3.15732
224.337	47.8204
224.807	43.52528
225.277	15.49112
225.747	47.85747
226.217	27.73579
226.687	41.29994
227.157	16.56665
227.627	12.81879
228.097	31.89484
228.567	36.27801
229.037	33.58201
229.507	51.08811
229.977	-7.69082
230.446	9.58779
230.916	12.76389
231.386	26.31215
231.855	42.85036
232.325	37.80959
232.794	41.51976
233.263	21.20775
233.733	53.32816
234.202	31.38103
234.671	11.30206
235.14	32.61798
235.61	32.49479
236.079	19.14606
236.548	23.63244
237.017	45.03961
237.486	32.4512
237.955	11.33828
238.424	4.49363
238.892	58.24747
239.361	21.47698
239.83	31.70381
240.299	49.08547
240.767	-42.84951
241.236	38.26782
241.704	26.52684
242.173	24.35613
242.641	11.76261
243.109	58.94881
243.578	39.05648
244.046	23.07464
244.514	30.96867
244.982	51.99506
245.451	25.80293
245.919	17.89197
246.387	23.12961
246.855	61.8979
247.323	26.66318
247.791	3.4477
248.258	50.50015
248.726	29.20985
249.194	19.76474
249.662	45.77906
250.129	1.80141
250.597	27.0227
251.064	17.98156
251.532	-4.25449
251.999	0
252.467	89.68895
252.934	18.60079
253.401	32.64881
253.869	-7.06922
254.336	65.11241
254.803	55.73176
255.27	18.94448
255.737	23.14435
256.204	18.30776
256.671	20.78879
257.138	54.54006
257.605	58.76646
258.072	17.94418
258.539	-2.53124
259.005	19.04377
259.472	33.3266
259.939	8.64071
260.405	14.28351
260.872	35.71111
261.338	41.7336
261.805	43.93296
262.271	-0.6991
262.737	32.25404
263.203	28.94428
263.67	27.51863
264.136	19.70374
264.602	36.46669
265.068	26.74085
265.534	-4.23626
266	11.60487
266.466	-26.31079
266.932	54.09237
267.398	-15.29115
267.864	9.73255
268.329	30.52885
268.795	-52.7663
269.261	71.84054
269.726	41.5793
270.192	11.2342
270.657	50.66296
271.123	28.29763
271.588	-7.69146
272.053	51.84517
272.519	28.7852
272.984	24.46465
273.449	22.4456
273.914	7.40631
274.379	31.94134
274.844	14.54275
275.309	72.545
275.774	42.96934
276.239	6.38187
276.704	11.1097
277.169	-30.11405
277.634	59.17899
278.098	-33.32753
278.563	50.68132
279.028	-4.34721
279.492	53.39299
279.957	-19.99668
280.421	62.06357
280.886	11.82604
281.35	36.90089
281.814	18.68837
282.279	-4.05344
282.743	27.99601
283.207	34.37072
283.671	25.60666
284.135	22.54549
284.599	-2.85674
285.063	23.46591
285.527	26.76672
285.991	14.92369
286.455	6.5923
286.919	67.08516
287.382	14.42054
287.846	61.73376
288.31	32.97462
288.773	57.24557
289.237	66.09646
289.7	28.56606
290.164	-22.96884
290.627	30.10365
291.09	47.12215
291.554	18.031
292.017	39.80095
292.48	-53.50957
292.943	68.41862
293.406	14.95058
293.869	36.35961
294.332	7.69121
294.795	36.07805
295.258	-17.85365
295.721	44.99511
296.184	56.36096
296.646	34.27947
297.109	73.25248
297.572	25.83932
298.034	35.93167
298.497	48.93153
298.959	8.50919
299.422	-21.91395
299.884	46.27504
300.346	9.75467
300.809	4.67196
301.271	49.40756
301.733	0
302.195	73.91129
302.657	41.99518
303.119	43.36946
303.581	70.88285
304.043	59.21838
304.505	21.83614
304.967	17.14089
305.429	42.85239
305.891	19.99715
306.352	43.01908
306.814	47.88382
307.275	22.57743
307.737	36.3591
308.198	39.1261
308.66	36.70523
309.121	33.68001
309.583	23.68149
310.044	19.22677
310.505	51.64385
310.966	48.38403
311.428	60.71032
311.889	13.15532
312.35	22.44561
312.811	32.5804
313.272	16.66403
313.733	44.9951
314.193	-53.03572
314.654	44.51886
315.115	3.4477
315.576	22.57743
316.036	10.16736
316.497	-7.29018
316.957	32.73844
317.418	21.77877
317.878	-6.24895
318.339	46.42581
318.799	13.08171
319.259	42.67896
319.72	6.74047
320.18	13.82757
320.64	10.99806
321.1	11.10882
321.56	-9.73212
322.02	44.67625
322.48	-15.18714
322.94	20.94894
323.4	88.29595
323.86	39.43326
324.319	-48.14434
324.779	19.27455
325.239	2.7267
325.698	36.3591
326.158	84.61304
326.617	44.57426
327.077	-11.31811
327.536	44.44049
327.996	8.16181
328.455	76.46817
328.914	-34.65974
329.373	-1.81798
329.832	47.95434
330.292	45.56574
330.751	33.01424
331.21	-6.77882
331.668	59.49837
332.127	17.35194
332.586	36.57972
333.045	21.2352
333.504	-64.80341
333.962	51.78019
334.421	48.04814
334.88	4.22478
335.338	-18.96293
335.797	-6.52111
336.255	-5.06246
336.714	41.12309
337.172	7.7765
337.63	9.41033
338.088	44.03139
338.547	35.84424
339.005	46.31112
339.463	14.28368
339.921	5.45399
340.379	37.07454
340.837	35.99658
341.295	7.86389
341.753	66.66245
342.21	3.84558
342.668	33.94011
343.126	43.13231
343.584	22.91332
344.041	23.70787
344.499	3.22523
344.956	24.13478
345.414	66.23036
345.871	32.47356
346.328	36.10783
346.786	43.09782
347.243	-24.99506
347.7	0
348.157	5.95145
348.614	22.51869
349.071	2.49981
349.528	31.8144
349.985	46.37003
350.442	-9.52208
350.899	61.35951
351.356	51.10666
351.812	27.77421
352.269	19.50965
352.726	40.37967
353.182	45.5849
353.639	37.97849
354.095	22.46884
354.552	22.76877
355.008	-14.9231
355.465	7.62548
355.921	22.0753
356.377	-13.79041
356.833	40.56099
357.289	72.87674
357.745	26.16414
358.201	2.96972
358.657	50.70736
359.113	42.97694
359.569	29.92133
360.025	50.4291
360.481	30.80672
360.937	46.53306
361.392	51.73569
361.848	19.04123
362.303	32.87941
362.759	45.51641
363.214	26.56802
363.67	41.49927
364.125	49.54252
364.581	23.78219
365.036	60.11625
365.491	46.53196
365.946	49.25834
366.401	42.25753
366.856	39.53327
367.311	50.26335
367.766	51.75726
368.221	49.18459
368.676	51.48579
369.131	45.81612
369.586	48.32481
370.041	51.99313
370.495	47.16015
370.95	44.84098
371.404	49.56785
371.859	51.25557
372.313	48.99824
372.768	55.54555
373.222	47.99073
373.676	51.43632
374.131	50.503
374.585	52.04337
375.039	52.67317
375.493	51.61956
375.947	50.5895
376.401	55.34496
376.855	53.61297
377.309	52.56321
377.763	52.7342
378.217	54.79012
378.67	50.71023
379.124	57.19545
379.578	52.18125
380.031	53.34404
380.485	52.08345
380.938	50.19397
381.392	52.40656
381.845	55.03016
382.299	51.04185
382.752	52.02929
383.205	54.11844
383.658	52.36318
384.111	52.15946
384.564	52.37322
385.018	50.7457
385.471	52.68827
385.923	53.96774
386.376	51.86306
386.829	52.70962
387.282	53.18598
387.735	53.8634
388.187	54.13431
388.64	54.02986
389.093	53.45782
389.545	53.0701
389.998	52.9528
390.45	53.26213
390.902	53.78566
391.355	54.04483
391.807	53.14497
392.259	54.21821
392.711	54.39817
393.163	54.11263
393.615	54.48831
394.068	54.48131
394.519	53.73836
394.971	53.49593
395.423	54.39361
395.875	54.39329
396.327	53.93322
396.779	53.99975
397.23	53.76537
397.682	53.54612
398.133	54.18375
398.585	54.08653
399.036	53.85563
399.488	54.09879
399.939	53.61941
400.39	53.35482
400.842	52.0823
401.293	53.33255
401.744	53.64716
402.195	53.70091
402.646	52.7841
403.097	52.86782
403.548	52.94709
403.999	52.8686
404.45	52.5621
404.9	53.30237
405.351	52.65421
405.802	52.27633
406.253	52.95034
406.703	52.75997
407.154	52.3134
407.604	52.67329
408.055	52.11682
408.505	51.88031
408.955	51.83784
409.406	51.74371
409.856	51.77145
410.306	50.74726
410.756	50.82517
411.206	51.58102
411.656	51.02539
412.106	50.81055
412.556	49.81185
413.006	50.75541
413.456	49.98076
413.905	49.303
414.355	49.72452
414.805	50.01768
415.254	49.56165
415.704	49.73923
416.153	49.26024
416.603	49.14716
417.052	49.15599
417.502	48.75499
417.951	49.04455
418.4	48.87405
418.849	48.45671
419.298	48.12328
419.748	47.92103
420.197	48.38631
420.646	48.5552
421.094	47.70905
421.543	47.77479
421.992	48.00322
422.441	47.32688
422.89	47.50322
423.338	47.80835
423.787	47.33091
424.236	47.20399
424.684	47.00475
425.133	46.16814
425.581	45.98476
426.029	45.69563
426.478	46.38973
426.926	45.9365
427.374	45.68632
427.822	46.0456
428.27	45.75592
428.718	45.80868
429.166	45.75992
429.614	45.87457
430.062	45.47146
430.51	45.28688
430.958	45.69172
431.406	45.10986
431.853	45.54944
432.301	45.17926
432.749	45.33671
433.196	44.71788
433.644	45.1872
434.091	44.55926
434.538	44.59331
434.986	44.5443
435.433	44.62992
435.88	44.25364
436.327	43.9668
436.775	44.80597
437.222	44.00049
437.669	44.24676
438.116	44.22666
438.563	44.27291
439.009	44.0878
439.456	44.42008
439.903	44.92089
440.35	43.87482
440.796	44.36661
441.243	44.26647
441.689	44.09743
442.136	44.62595
442.582	43.98803
443.029	44.05789
443.475	43.96626
443.921	44.23808
444.368	43.94653
444.814	44.38884
445.26	43.85279
445.706	44.0823
446.152	44.07276
446.598	44.65399
447.044	44.1818
447.49	43.93578
447.936	43.9362
448.381	44.21971
448.827	44.27965
449.273	44.53046
449.718	43.93112
450.164	44.16343
450.61	44.27831
451.055	44.13094
451.5	44.44075
451.946	43.95714
452.391	44.26654
452.836	44.33696
453.282	44.48674
453.727	43.90354
454.172	44.57614
454.617	44.48126
455.062	44.45311
455.507	44.58859
455.952	44.48443
456.396	44.66188
456.841	44.97881
457.286	44.94661
457.731	44.98967
458.175	44.91355
458.62	45.00636
459.064	44.92077
459.509	45.14573
459.953	45.30256
460.398	45.16022
460.842	44.90941
461.286	45.50888
461.73	45.39423
462.174	45.73493
462.619	45.62779
463.063	45.75606
463.507	46.01264
463.951	45.63193
464.394	46.53166
464.838	46.26149
465.282	46.72283
465.726	46.39118
466.17	46.59468
466.613	47.06256
467.057	47.20398
467.5	47.75588
467.944	47.41839
468.387	47.63707
468.831	47.97497
469.274	48.21782
469.717	48.51031
470.16	47.93419
470.603	48.0969
471.047	48.57257
471.49	48.86562
471.933	48.99718
472.376	49.6628
472.818	49.76865
473.261	49.58974
473.704	49.87487
474.147	50.23502
474.59	49.76983
475.032	50.35603
475.475	50.68218
475.917	50.76566
476.36	50.65778
476.802	50.54853
477.245	51.0696
477.687	50.84053
478.129	51.28163
478.571	51.62527
479.013	52.09488
479.456	51.66975
479.898	52.52178
480.34	52.71359
480.782	52.76431
481.224	52.979
481.665	53.06962
482.107	53.42707
482.549	53.79102
482.991	53.70936
483.432	53.8362
483.874	53.72151
484.315	53.98409
484.757	53.94575
485.198	53.99584
485.64	54.18825
486.081	54.47432
486.522	54.13187
486.963	54.38716
487.405	54.22186
487.846	54.65197
488.287	54.58822
488.728	55.05183
489.169	55.06025
489.61	54.51743
490.05	54.94944
490.491	54.96987
490.932	55.17367
491.373	55.61621
491.813	55.19499
492.254	55.22444
492.694	55.15785
493.135	55.41901
493.575	55.18401
494.016	55.37596
494.456	55.47166
494.896	55.56458
495.336	56.10778
495.777	56.21655
496.217	56.17652
496.657	55.51838
497.097	56.09248
497.537	55.8157
497.977	56.40905
498.416	56.69615
498.856	57.34132
499.296	56.61462
499.736	57.1027
500.175	56.63742
500.615	57.05704
501.054	57.14656
501.494	56.99106
501.933	57.40015
502.373	57.26175
502.812	57.77441
503.251	57.58343
503.69	58.42234
504.129	58.17398
504.569	58.32127
505.008	58.62675
505.447	58.91668
505.886	58.85352
506.324	59.22638
506.763	59.16526
507.202	60.02756
507.641	59.85712
508.079	59.93252
508.518	60.67994
508.957	60.00419
509.395	61.19406
509.834	61.06784
510.272	61.13886
510.71	61.96683
511.149	61.19896
511.587	61.47522
512.025	61.43937
512.463	61.837
512.901	62.21431
513.339	62.02964
513.777	63.37605
514.215	63.00273
514.653	63.15914
515.091	63.91019
515.529	63.81231
515.966	64.23675
516.404	64.06957
516.842	64.24606
517.279	64.74202
517.717	64.49133
518.154	65.2506
518.592	64.97444
519.029	65.39721
519.466	65.9916
519.904	65.95815
520.341	66.49082
520.778	66.20294
521.215	66.66297
521.652	67.33347
522.089	67.05608
522.526	67.24421
522.963	66.75002
523.399	67.11209
523.836	67.66296
524.273	68.00474
524.71	68.66564
525.146	68.43594
525.583	68.99425
526.019	68.90789
526.456	69.0846
526.892	69.26799
527.328	69.54313
527.765	69.75626
528.201	70.06208
528.637	70.6047
529.073	70.85312
529.509	70.7386
529.945	70.80145
530.381	70.84465
530.817	70.61265
531.253	71.06815
531.689	71.66677
532.124	71.64849
532.56	71.92208
532.996	72.25097
533.431	72.07349
533.867	72.95724
534.302	72.07636
534.738	72.61299
535.173	73.31328
535.608	72.95082
536.044	73.62165
536.479	73.48956
536.914	73.29313
537.349	73.11439
537.784	73.59029
538.219	73.49561
538.654	74.32649
539.089	73.88706
539.524	73.72261
539.959	74.67262
540.393	74.4822
540.828	74.45853
541.263	74.48022
541.697	74.42856
542.132	74.82046
542.566	75.07683
543.001	75.2054
543.435	75.17841
543.869	75.12397
544.303	74.79281
544.738	74.95452
545.172	74.62587
545.606	75.08004
546.04	75.05561
546.474	75.0749
546.908	74.78846
547.342	74.98047
547.775	74.62841
548.209	74.77323
548.643	74.40482
549.077	74.7995
549.51	74.62282
549.944	74.53995
550.377	74.46513
550.811	73.98563
551.244	73.96955
551.677	73.5864
552.111	73.59997
552.544	73.93016
552.977	73.51473
553.41	72.87125
553.843	73.31484
554.276	73.54395
554.709	72.85194
555.142	73.18283
555.575	73.09136
556.008	72.70379
556.44	72.55212
556.873	72.45668
557.306	72.52894
557.738	71.59883
558.171	71.65272
558.603	71.85258
559.036	71.58428
559.468	71.34071
559.9	71.01619
560.333	70.31775
560.765	69.80084
561.197	70.07396
561.629	69.87769
562.061	69.82678
562.493	69.43179
562.925	69.27211
563.357	69.14037
563.789	68.90433
564.22	68.47602
564.652	68.59702
565.084	68.65811
565.515	67.97088
565.947	67.85305
566.378	68.01957
566.81	67.89215
567.241	67.51128
567.672	66.64509
568.104	67.09299
568.535	66.89782
568.966	66.21755
569.397	65.97922
569.828	65.8393
570.259	65.7464
570.69	65.39765
571.121	64.8087
571.552	64.64719
571.983	64.34663
572.414	63.87187
572.844	63.61885
573.275	64.20627
573.705	63.8619
574.136	63.28635
574.566	63.05449
574.997	62.70484
575.427	62.29355
575.857	62.27209
576.288	61.77015
576.718	61.45127
577.148	61.57122
577.578	61.33811
578.008	60.49841
578.438	60.72468
578.868	60.42674
579.298	60.27741
579.728	59.73894
580.157	60.06265
580.587	59.78166
581.017	59.72781
581.446	59.1524
581.876	59.50481
582.305	58.75639
582.735	58.52239
583.164	57.75363
583.593	57.5236
584.023	57.37961
584.452	57.46801
584.881	57.59639
585.31	56.80636
585.739	56.63291
586.168	56.60139
586.597	56.50748
587.026	56.053
587.455	56.16941
587.884	55.7856
588.312	55.69305
588.741	55.11923
589.17	55.10323
589.598	54.92889
590.027	55.00489
590.455	54.96852
590.884	54.51286
591.312	54.26894
591.74	53.99053
592.168	54.13238
592.597	53.77693
593.025	53.20448
593.453	53.1665
593.881	53.15325
594.309	52.28918
594.737	52.39001
595.165	52.07106
595.592	51.71
596.02	51.94655
596.448	51.83179
596.875	51.69873
597.303	50.82448
597.73	50.86358
598.158	51.04121
598.585	50.85881
599.013	50.31775
599.44	50.28937
599.867	50.22516
600.294	50.22732
600.722	50.05756
601.149	50.06044
601.576	49.6997
602.003	49.65239
602.43	49.45509
602.856	49.10933
603.283	49.20925
603.71	48.86596
604.137	48.51915
604.563	48.6055
604.99	48.93118
605.416	48.2223
605.843	48.23133
606.269	48.16101
606.696	47.34036
607.122	47.55536
607.548	47.08947
607.975	47.23112
608.401	46.87551
608.827	46.80528
609.253	46.9625
609.679	47.08224
610.105	46.5536
610.531	46.73388
610.956	46.38177
611.382	46.85217
611.808	46.53589
612.234	45.94497
612.659	45.94083
613.085	46.30422
613.51	45.97918
613.936	45.9848
614.361	45.78796
614.786	45.95102
615.212	45.62958
615.637	45.32585
616.062	46.07108
616.487	45.16097
616.912	45.60726
617.337	45.50295
617.762	45.32492
618.187	45.24279
618.612	44.88453
619.037	45.03036
619.461	45.04841
619.886	44.99769
620.311	44.96533
620.735	44.72641
621.16	45.09162
621.584	44.47451
622.008	44.57875
622.433	44.57714
622.857	44.55335
623.281	44.54815
623.705	44.98183
624.13	44.60454
624.554	44.70925
624.978	44.48114
625.402	44.58063
625.826	44.61859
626.249	44.76543
626.673	44.80064
627.097	44.25416
627.521	44.90459
627.944	44.98157
628.368	44.54786
628.791	44.66147
629.215	44.32706
629.638	44.33715
630.061	44.86786
630.485	44.75696
630.908	44.78354
631.331	44.81144
631.754	44.43236
632.177	44.98582
632.6	44.43512
633.023	44.83715
633.446	44.53275
633.869	45.20405
634.292	45.186
634.715	45.52694
635.137	44.98221
635.56	45.10324
635.982	45.26704
636.405	45.31916
636.827	45.53859
637.25	45.27769
637.672	45.29455
638.094	45.69168
638.517	45.66849
638.939	45.76412
639.361	46.20972
639.783	46.11458
640.205	45.81202
640.627	46.04575
641.049	45.90655
641.471	46.01379
641.893	46.71182
642.314	46.59435
642.736	47.03201
643.158	46.82794
643.579	47.04348
644.001	47.11954
644.422	47.37219
644.844	47.14968
645.265	47.43128
645.686	47.64066
646.107	47.79961
646.529	47.83839
646.95	47.85211
647.371	48.34609
647.792	48.02346
648.213	48.86835
648.634	48.67295
649.055	49.07981
649.475	49.34097
649.896	49.21655
650.317	49.72881
650.737	48.96687
651.158	49.59345
651.578	50.08583
651.999	50.0951
652.419	49.85753
652.84	50.39487
653.26	50.69
653.68	50.64445
654.1	50.71862
654.521	51.76669
654.941	51.14225
655.361	51.3783
655.781	51.86308
656.2	51.49516
656.62	52.39583
657.04	51.98895
657.46	52.08303
657.879	52.20673
658.299	52.95762
658.719	53.05472
659.138	52.89089
659.558	53.18458
659.977	53.32272
660.396	53.43855
660.816	53.63922
661.235	53.77043
661.654	54.2042
662.073	53.69668
662.492	54.41194
662.911	54.35905
663.33	54.14364
663.749	54.68621
664.168	54.66736
664.587	55.01052
665.006	54.90067
665.424	55.68617
665.843	55.3469
666.261	55.78034
666.68	55.61487
667.098	56.30653
667.517	55.98125
667.935	56.08411
668.353	55.68819
668.772	55.70772
669.19	56.11434
669.608	56.06809
670.026	55.9383
670.444	56.64721
670.862	56.08651
671.28	56.58651
671.698	56.78543
672.115	56.84762
672.533	57.07519
672.951	57.10777
673.368	57.11368
673.786	56.56408
674.203	56.33936
674.621	56.44076
675.038	56.61437
675.456	57.30504
675.873	56.88399
676.29	57.30314
676.707	56.93021
677.124	57.01933
677.541	57.22967
677.958	56.65027
678.375	56.96381
678.792	57.23431
679.209	57.32353
679.626	56.89748
680.043	57.50324
680.459	56.86463
680.876	57.09889
681.292	57.02328
681.709	57.30046
682.125	56.79663
682.542	56.92633
682.958	56.52921
683.374	57.07403
683.79	56.32611
684.207	56.50902
684.623	56.33088
685.039	56.70316
685.455	56.84462
685.871	55.86564
686.286	56.56244
686.702	56.15654
687.118	56.33915
687.534	56.20562
687.949	55.99267
688.365	55.29785
688.781	55.47648
689.196	55.46782
689.611	55.15977
690.027	55.07323
690.442	54.87939
690.857	54.90353
691.273	54.76462
691.688	55.01408
692.103	54.88803
692.518	54.28873
692.933	54.08641
693.348	54.07085
693.763	53.84736
694.177	53.12435
694.592	53.58006
695.007	52.32571
695.421	52.37973
695.836	52.12571
696.25	52.00288
696.665	51.66342
697.079	51.93945
697.494	51.43539
697.908	51.50826
698.322	51.46512
698.736	50.53037
699.151	50.94479
699.565	50.96371
699.979	51.09429
700.393	50.50893
700.806	50.08326
701.22	49.67695
701.634	49.32815
702.048	50.26009
702.461	49.47474
702.875	49.70624
703.289	48.75664
703.702	49.36183
704.116	48.73192
704.529	49.1932
704.942	48.27877
705.356	48.60699
705.769	47.51313
706.182	48.1807
706.595	47.634
707.008	47.25048
707.421	47.14704
707.834	46.2038
708.247	45.8951
708.66	46.17345
709.072	46.23487
709.485	45.44348
709.898	45.22258
710.31	44.54993
710.723	44.69835
711.135	44.44768
711.548	44.298
711.96	43.80767
712.373	43.38354
712.785	42.85638
713.197	42.94681
713.609	42.1634
714.021	42.72598
714.433	41.69941
714.845	41.88901
715.257	41.93188
715.669	41.50896
716.081	40.80954
716.493	40.74224
716.904	40.60019
717.316	40.26814
717.727	40.17664
718.139	39.5301
718.55	39.5792
718.962	39.6214
719.373	38.77251
719.784	38.99001
720.196	38.69496
720.607	38.25487
721.018	38.33305
721.429	37.75661
721.84	37.84785
722.251	37.63201
722.662	37.24906
723.073	36.95055
723.483	36.83445
723.894	36.46066
724.305	36.02901
724.715	36.00505
725.126	35.59598
725.536	35.58762
725.947	34.99335
726.357	34.883
726.768	34.64689
727.178	34.30783
727.588	34.05913
727.998	33.76379
728.408	33.43764
728.818	33.43541
729.228	33.27493
729.638	32.9848
730.048	33.12175
730.458	33.2799
730.868	32.91229
731.277	32.56453
731.687	32.27929
732.097	32.26533
732.506	31.67581
732.916	31.77672
733.325	31.77898
733.734	32.08984
734.144	31.17085
734.553	31.23119
734.962	30.36552
735.371	30.94071
735.78	30.01111
736.189	30.34471
736.598	29.83473
737.007	30.30658
737.416	29.61927
737.825	30.06963
738.233	29.54117
738.642	29.96694
739.051	29.77539
739.459	29.48191
739.868	29.09779
740.276	29.07384
740.684	28.68858
741.093	28.35478
741.501	28.47691
741.909	28.4384
742.317	28.42631
742.725	28.05256
743.133	28.1143
743.541	27.73382
743.949	27.79472
744.357	27.34304
744.765	28.07671
745.173	27.36438
745.58	27.84804
745.988	27.24178
746.396	27.55201
746.803	26.99409
747.211	27.03099
747.618	26.67948
748.025	26.82258
748.433	26.68342
748.84	26.25386
749.247	26.49961
749.654	26.29436
750.061	26.45026
750.468	25.74147
750.875	26.29142
751.282	25.5373
751.689	25.75218
752.096	25.58109
752.502	25.55598
752.909	25.28382
753.316	25.31629
753.722	25.66878
754.129	25.37784
754.535	25.6321
754.941	25.13769
755.348	25.38289
755.754	24.76285
756.16	24.94284
756.566	24.81527
756.972	24.69925
757.378	24.57026
757.784	24.72831
758.19	24.62024
758.596	24.29103
759.002	24.87293
759.408	24.37374
759.813	24.65644
760.219	24.28256
760.624	24.59861
761.03	23.94467
761.435	23.94927
761.841	23.75469
762.246	23.72613
762.651	23.98835
763.057	23.50657
763.462	24.82253
763.867	24.27766
764.272	24.73742
764.677	24.43249
765.082	24.52347
765.487	24.18394
765.892	24.23818
766.296	24.44005
766.701	23.64999
767.106	24.0977
767.51	23.7872
767.915	23.98458
768.319	23.86592
768.724	23.77737
769.128	23.80333
769.532	23.05109
769.936	23.86122
770.341	23.202
770.745	23.97058
771.149	23.52994
771.553	23.41482
771.957	23.59728
772.361	22.94964
772.764	24.09585
773.168	23.18759
773.572	23.96572
773.976	23.11034
774.379	23.01314
774.783	23.04689
775.186	23.14957
775.59	23.42603
775.993	23.05939
776.396	23.2178
776.8	22.81082
777.203	22.4875
777.606	22.99311
778.009	22.75078
778.412	23.23421
778.815	22.39288
779.218	22.92243
779.621	22.50996
780.023	23.11961
780.426	22.75214
780.829	22.78031
781.231	23.11552
781.634	22.7089
782.036	23.05283
782.439	22.73437
782.841	22.73264
783.244	22.91321
783.646	22.62307
784.048	23.2065
784.45	22.50403
784.852	22.87992
785.254	22.70477
785.656	22.95637
786.058	22.66966
786.46	22.28637
786.862	22.27313
787.264	22.39895
787.665	22.45115
788.067	22.6778
788.468	22.36432
788.87	22.90786
789.271	22.46887
789.673	22.81528
790.074	22.55943
790.475	22.04912
790.877	22.91752
791.278	22.33159
791.679	22.80157
792.08	22.42918
792.481	22.41713
792.882	22.85598
793.283	22.16129
793.683	22.33915
794.084	22.62993
794.485	22.54519
794.886	22.75758
795.286	21.94153
795.687	22.85441
796.087	22.165
796.487	22.13035
796.888	22.83425
797.288	22.09416
797.688	22.54168
798.088	22.08555
798.489	22.62032
798.889	22.54119
799.289	21.99194
799.689	22.62273
800.088	22.6121
800.488	22.29359
800.888	22.94053
801.288	22.58079
801.687	22.54718
802.087	22.67683
802.486	22.88387
802.886	22.73592
803.285	22.68625
803.685	22.69613
804.084	22.49125
804.483	22.39532
804.882	23.13483
805.281	22.6329
805.68	23.21496
806.079	22.49777
806.478	23.10264
806.877	23.29458
807.276	22.99588
807.675	23.31895
808.074	23.16762
808.472	22.9573
808.871	23.36515
809.269	22.88869
809.668	22.59003
810.066	23.08028
810.465	22.29065
810.863	23.21426
811.261	22.6951
811.659	22.66741
812.057	23.32219
812.455	22.71353
812.853	22.63089
813.251	23.10684
813.649	22.76601
814.047	23.41173
814.445	22.69715
814.843	22.59113
815.24	23.03108
815.638	22.62699
816.035	22.96874
816.433	22.66996
816.83	22.62304
817.228	23.20742
817.625	22.38908
818.022	23.05349
818.419	23.08032
818.816	22.70643
819.213	22.91286
819.61	22.7023
820.007	23.14302
820.404	23.40247
820.801	23.0085
821.198	23.46576
821.595	23.45424
821.991	23.38057
822.388	24.25765
822.784	24.05677
823.181	24.53482
823.577	24.84742
823.974	24.59932
824.37	24.7632
824.766	24.59048
825.162	24.19714
825.558	24.15552
825.954	23.57145
826.35	23.99023
826.746	24.46745
827.142	24.04099
827.538	24.47604
827.934	24.60468
828.33	24.56348
828.725	24.52657
829.121	24.34014
829.516	24.10122
829.912	24.32439
830.307	23.85374
830.703	23.78807
831.098	23.72327
831.493	23.28078
831.888	23.80396
832.283	23.29096
832.678	23.25102
833.073	23.80184
833.468	23.78559
833.863	23.79871
834.258	24.34308
834.653	23.85535
835.048	24.18654
835.442	24.5659
835.837	23.89628
836.231	24.58523
836.626	24.00353
837.02	24.12409
837.415	24.41354
837.809	23.79696
838.203	24.15412
838.597	23.88049
838.991	23.3576
839.385	23.41458
839.779	23.93888
840.173	23.75741
840.567	24.04489
840.961	24.08423
841.355	23.83394
841.748	24.341
842.142	24.41221
842.536	23.84223
842.929	25.24167
843.323	24.39267
843.716	24.46555
844.109	24.77953
844.503	25.06449
844.896	23.78188
845.289	25.01716
845.682	24.07436
846.075	24.03074
846.468	24.67643
846.861	24.69313
847.254	24.75151
847.647	24.51758
848.04	24.7042
848.432	25.13308
848.825	24.54454
849.217	23.62693
849.61	25.22305
850.002	24.65333
850.395	23.47339
850.787	25.16342
851.179	24.23708
851.572	24.14721
851.964	25.31913
852.356	25.00413
852.748	24.81587
853.14	25.02021
853.532	23.84872
853.924	24.10123
854.315	24.86716
854.707	24.60427
855.099	24.61312
855.491	24.7927
855.882	24.50112
856.274	24.09464
856.665	24.80103
857.056	24.91278
857.448	24.01729
857.839	24.92244
858.23	25.28599
858.621	25.06726
859.012	25.37769
859.403	24.48703
859.794	24.93993
860.185	25.45194
860.576	24.11416
860.967	25.53126
861.358	24.40333
861.748	24.62315
862.139	24.6842
862.529	24.94916
862.92	24.2456
863.31	24.17028
863.701	24.64187
864.091	24.76761
864.481	24.79349
864.872	25.32007
865.262	24.62173
865.652	25.53846
866.042	24.83317
866.432	24.54759
866.822	24.59143
867.211	25.52059
867.601	24.87021
867.991	24.34209
868.381	25.24851
868.77	24.45247
869.16	25.10349
869.549	24.50969
869.939	24.02861
870.328	24.11062
870.717	25.17325
871.106	24.70752
871.496	24.61313
871.885	25.03695
872.274	24.37152
872.663	24.6638
873.052	24.69338
873.441	24.43419
873.829	24.32424
874.218	25.38112
874.607	24.73683
874.996	24.35866
875.384	25.0348
875.773	24.50213
876.161	24.37764
876.549	24.66117
876.938	24.20722
877.326	24.18253
877.714	24.47287
878.102	24.37154
878.491	23.77114
878.879	24.41089
879.267	24.05691
879.655	24.0445
880.042	24.68319
880.43	24.73532
880.818	24.41844
881.206	25.04623
881.593	25.14854
881.981	24.96028
882.368	25.10893
882.756	25.41276
883.143	24.86505
883.53	25.26688
883.918	25.40042
884.305	24.70307
884.692	24.74945
885.079	25.21069
885.466	24.68299
885.853	24.53329
886.24	24.77875
886.627	24.18098
887.014	24.4119
887.4	24.54153
887.787	24.84536
888.174	24.80734
888.56	24.77445
888.947	24.67028
889.333	24.28228
889.719	24.50762
890.106	24.47795
890.492	23.95243
890.878	23.96192
891.264	24.77525
891.65	24.95127
892.036	23.83167
892.422	24.43063
892.808	23.77318
893.194	23.55493
893.58	24.49785
893.965	24.11986
894.351	23.96385
894.736	24.30535
895.122	24.18843
895.507	23.71047
895.893	24.09473
896.278	24.24628
896.663	24.59424
897.049	24.41223
897.434	23.90686
897.819	24.0151
898.204	23.43867
898.589	24.09994
898.974	23.70479
899.359	23.56228
899.743	23.56466
900.128	24.03355
900.513	23.30351
900.897	23.65024
901.282	23.74189
901.667	23.34929
902.051	23.10413
902.435	24.01188
902.82	23.41576
903.204	22.8136
903.588	24.09384
903.972	24.25624
904.356	23.78719
904.74	23.78111
905.124	24.46127
905.508	24.0144
905.892	24.13148
906.276	24.33473
906.659	24.21224
907.043	23.42897
907.427	24.25654
907.81	24.74043
908.194	23.89929
908.577	23.62495
908.96	24.16806
909.344	24.17691
909.727	24.19668
910.11	24.47198
910.493	24.37482
910.876	23.47238
911.259	24.62184
911.642	24.2334
912.025	23.43252
912.408	23.13078
912.79	23.55761
913.173	22.98679
913.556	23.45147
913.938	23.58432
914.321	24.04243
914.703	23.43848
915.086	23.61407
915.468	23.74248
915.85	23.28626
916.232	23.7103
916.614	23.81108
916.996	24.23172
917.378	23.17033
917.76	23.52499
918.142	23.31403
918.524	23.76737
918.906	23.77536
919.288	24.27376
919.669	23.89571
920.051	23.42703
920.432	23.92124
920.814	24.02098
921.195	23.08293
921.577	23.54425
921.958	24.73683
922.339	24.01711
922.72	23.83251
923.101	24.5673
923.482	23.97957
923.863	23.26368
924.244	23.15295
924.625	23.62512
925.006	23.55334
925.387	22.4005
925.767	23.80338
926.148	22.5425
926.528	23.54199
926.909	23.76518
927.289	23.91537
927.67	22.88414
928.05	23.00005
928.43	23.55991
928.81	23.01076
929.191	23.25095
929.571	23.01247
929.951	23.08474
930.331	23.54082
930.71	23.58164
931.09	23.46854
931.47	23.85391
931.85	23.02438
932.229	22.69449
932.609	22.1013
932.988	23.4456
933.368	23.1824
933.747	22.57618
934.127	23.76931
934.506	23.60901
934.885	21.9068
935.264	23.64391
935.643	22.13949
936.022	23.76321
936.401	23.10646
936.78	22.97901
937.159	23.01123
937.538	22.12879
937.916	22.4661
938.295	23.1992
938.674	22.34665
939.052	23.25449
939.431	22.76244
939.809	22.91399
940.187	23.97089
940.566	23.88846
940.944	22.20401
941.322	22.89619
941.7	23.22744
942.078	21.13881
942.456	22.79471
942.834	22.81892
943.212	21.05804
943.59	21.84704
943.968	21.35569
944.345	21.75007
944.723	22.87771
945.1	21.92569
945.478	22.15591
945.855	23.13189
946.233	22.27397
946.61	21.78742
946.987	21.25295
947.365	20.87148
947.742	19.51717
948.119	22.60319
948.496	22.78842
948.873	20.39323
949.25	20.66282
949.626	21.02977
950.003	20.44623
950.38	21.39371
950.756	22.28371
951.133	21.07111
951.51	19.55213
951.886	20.81106
952.262	21.52562
952.639	21.2505
953.015	20.45434
953.391	20.56387
953.767	21.69907
954.143	20.00234
954.519	19.03382
954.895	20.80087
955.271	20.25711
955.647	16.4595
956.023	18.91331
956.399	20.18801
956.774	21.48138
957.15	19.14418
957.525	22.37551
957.901	19.30909
958.276	18.47785
958.652	20.23045
959.027	19.99782
959.402	21.35737
959.777	20.2987
960.152	18.93378
960.527	18.75544
960.902	20.19328
961.277	22.23074
961.652	18.27808
962.027	19.28565
962.402	19.92953
962.776	22.22334
963.151	19.02642
963.525	19.93342
963.9	21.42579
964.274	21.84129
964.649	19.18565
965.023	18.27654
965.397	21.28081
965.771	19.98593
966.146	19.90647
966.52	20.67007
966.894	19.08466
967.268	21.4946
967.641	20.5823
968.015	20.6399
968.389	20.76321
968.763	19.07891
969.136	18.73887
969.51	20.31491
969.883	19.98775
970.257	20.24292
970.63	19.97424
971.003	20.33925
971.377	20.7823
971.75	19.9747
972.123	20.44868
972.496	20.27004
972.869	19.69755
973.242	20.99666
973.615	22.09495
973.988	19.32736
974.36	19.97022
974.733	20.28204
975.106	19.97288
975.478	20.92498
975.851	19.12456
976.223	19.88895
976.596	17.89662
976.968	20.89918
977.34	20.39581
977.712	19.23249
978.085	17.59989
978.457	18.9589
978.829	19.82793
979.201	19.8033
979.573	18.11011
979.944	18.78186
980.316	19.35025
980.688	20.09524
981.059	21.33095
981.431	20.32144
981.803	20.94739
982.174	21.62598
982.545	20.01377
982.917	21.16656
983.288	20.57
983.659	19.86445
984.03	17.81456
984.401	19.60333
984.772	19.90042
985.143	18.86378
985.514	20.59974
985.885	20.26147
986.256	21.1058
986.627	20.33037
986.997	21.03044
987.368	17.71495
987.738	19.31898
988.109	18.70566
988.479	18.59318
988.85	18.69491
989.22	18.47309
989.59	19.28107
989.96	18.76249
990.33	17.43747
990.7	18.57317
991.07	19.10801
991.44	18.45686
991.81	18.69845
992.18	18.55812
992.549	19.64326
992.919	20.27783
993.289	17.21907
993.658	19.4387
994.028	19.88715
994.397	18.98335
994.766	18.49399
995.136	19.8026
995.505	17.05078
995.874	20.11139
996.243	18.6874
996.612	17.29915
996.981	18.37696
997.35	20.66164
997.719	19.00358
998.088	19.73204
998.456	20.85294
998.825	20.06828
999.194	16.90311
999.562	16.99018
999.931	20.5263
1000.299	17.41597
1000.667	17.91024
1001.036	18.44427
1001.404	20.70977
1001.772	18.39349
1002.14	20.88769
1002.508	18.37672
1002.876	20.45732
1003.244	21.44662
1003.612	16.11538
1003.98	18.58778
1004.347	18.93183
1004.715	17.31989
1005.083	18.59918
1005.45	16.1106
1005.818	19.19828
1006.185	18.57558
1006.552	19.44956
1006.92	19.01983
1007.287	21.40112
1007.654	17.19498
1008.021	17.61778
1008.388	19.01816
1008.755	15.44141
1009.122	20.58508
1009.489	20.62626
1009.856	17.19194
1010.222	16.85036
1010.589	17.01895
1010.956	20.23487
1011.322	15.60366
1011.689	20.58917
1012.055	14.43945
1012.421	20.49384
1012.788	15.53657
1013.154	20.63512
1013.52	17.90158
1013.886	19.36243
1014.252	16.51159
1014.618	16.89081
1014.984	16.08967
1015.35	18.94832
1015.716	18.39588
1016.081	18.73971
1016.447	21.71834
1016.813	24.91462
1017.178	20.9146
1017.544	21.08252
1017.909	15.63692
1018.274	24.18953
1018.64	17.10236
1019.005	20.63003
1019.37	12.94992
1019.735	18.89267
1020.1	18.77462
1020.465	17.22318
1020.83	17.855
1021.195	17.63523
1021.56	27.93837
1021.924	18.61901
1022.289	19.291
1022.654	19.94837
1023.018	13.43812
1023.383	14.944
1023.747	20.53127
1024.111	16.74274
1024.476	16.95193
1024.84	14.4507
1025.204	20.43628
1025.568	9.25125
1025.932	17.06317
1026.296	15.13265
1026.66	24.21857
1027.024	13.71023
1027.387	6.93558
1027.751	19.03364
1028.115	27.60982
1028.478	21.22314
1028.842	15.86897
1029.205	12.37974
1029.569	16.763
1029.932	21.89701
1030.295	16.45647
1030.659	-1.25529
1031.022	13.93841
1031.385	25.15894
1031.748	18.81076
1032.111	1.61155
1032.474	12.23147
1032.836	18.49746
1033.199	17.79005
1033.562	14.08335
1033.924	9.5174
1034.287	26.51557
1034.65	10.22934
1035.012	10.477
1035.374	34.75472
1035.737	9.5317
1036.099	14.68885
1036.461	20.09873
1036.823	4.03194
1037.185	16.45091
1037.547	14.84394
1037.909	6.84956
1038.271	24.47142
1038.633	13.69183
1038.995	18.42802
1039.356	15.12501
1039.718	14.08241
1040.08	18.20168
1040.441	10.63302
1040.803	14.67826
1041.164	-1.81718
1041.525	13.42108
1041.886	-7.45951
1042.248	22.1714
1042.609	8.69133
1042.97	21.49195
1043.331	22.91311
1043.692	10.34058
1044.053	15.08051
1044.413	3.22428
1044.774	22.00584
1045.135	9.00911
1045.495	17.99274
1045.856	23.24824
1046.216	-1.93156
1046.577	23.8659
1046.937	6.39331
1047.298	25.81354
