Data from 1017water_Reflection__2__21-00-04-330.txt Node

Date: Fri Oct 17 21:00:04 AST 2025
User: lin
Spectrometer: SR600411
Trigger mode: 0
Integration Time (sec): 5.846600E-2
Scans to average: 5
Nonlinearity correction enabled: true
Boxcar width: 0
Storing dark spectrum: false
XAxis mode: Wavelengths
Number of Pixels in Spectrum: 2048
>>>>>Begin Spectral Data<<<<<
187.982	47.62054
188.456	55.10011
188.93	45.96545
189.403	47.57191
189.877	46.81989
190.351	34.14717
190.825	45.47769
191.298	38.94413
191.772	38.69804
192.246	39.2246
192.719	48.54741
193.193	42.78367
193.666	42.90504
194.139	46.76964
194.613	41.70464
195.086	53.16255
195.559	55.12575
196.033	46.26317
196.506	59.93041
196.979	55.56245
197.452	49.38811
197.925	51.98153
198.398	47.70778
198.871	54.59038
199.344	51.99435
199.816	54.58291
200.289	63.16893
200.762	52.61755
201.235	47.52895
201.707	51.87634
202.18	23.19804
202.652	48.82871
203.125	44.43653
203.597	70.44912
204.07	39.09773
204.542	40.20864
205.014	35.25635
205.486	24.41233
205.959	46.14554
206.431	14.46152
206.903	36.29855
207.375	27.93577
207.847	47.78741
208.319	19.8838
208.791	31.18804
209.263	35.10861
209.734	56.82779
210.206	29.99543
210.678	41.88476
211.15	-7.93437
211.621	19.17361
212.093	2.47876
212.564	21.3697
213.036	69.02177
213.507	37.15533
213.979	27.26928
214.45	31.50062
214.921	3.99924
215.392	31.14237
215.864	35.89211
216.335	19.99715
216.806	57.83822
217.277	17.42809
217.748	23.67877
218.219	37.13801
218.69	28.9872
219.161	-1.51495
219.631	26.91903
220.102	23.25126
220.573	25.77641
221.043	6.40933
221.514	-4.83747
221.985	14.13904
222.455	45.18721
222.926	45.44915
223.396	46.08746
223.866	17.89197
224.337	24.34363
224.807	37.64311
225.277	11.2662
225.747	17.09074
226.217	29.67102
226.687	10.8678
227.157	39.42031
227.627	35.89389
228.097	38.02921
228.567	44.24227
229.037	42.74175
229.507	46.70858
229.977	28.56776
230.446	9.58779
230.916	4.25456
231.386	19.997
231.855	19.99557
232.325	13.44264
232.794	52.53656
233.263	18.17793
233.733	27.61489
234.202	31.38103
234.671	19.12691
235.14	40.41882
235.61	44.16081
236.079	52.12302
236.548	13.6338
237.017	36.03098
237.486	3.50801
237.955	20.61542
238.424	24.71583
238.892	28.15122
239.361	25.18015
239.83	29.26494
240.299	10.90698
240.767	-33.3278
241.236	9.87512
241.704	19.38473
242.173	57.68854
242.641	15.68361
243.109	56.70991
243.578	21.87067
244.046	-10.7677
244.514	40.70257
244.982	53.99508
245.451	19.35197
245.919	64.20621
246.387	43.27707
246.855	34.00708
247.323	18.88616
247.791	9.19397
248.258	47.46986
248.726	59.54632
249.194	25.57816
249.662	14.4558
250.129	-4.50347
250.597	10.80869
251.064	31.64873
251.532	21.27348
251.999	-13.63367
252.467	75.25416
252.934	29.45206
253.401	8.16182
253.869	-4.03958
254.336	55.80976
254.803	46.71532
255.27	19.99699
255.737	55.55028
256.204	-7.04119
256.671	38.60913
257.138	14.54275
257.605	24.55722
258.072	7.04926
258.539	7.59384
259.005	19.04377
259.472	45.09054
259.939	19.75055
260.405	-31.86057
260.872	75.71174
261.338	15.64917
261.805	56.81178
262.271	22.37271
262.737	24.72776
263.203	15.78748
263.67	18.34539
264.136	23.35282
264.602	50.58403
265.068	48.83296
265.534	23.72459
266	41.06606
266.466	13.15618
266.932	57.37115
267.398	-4.70505
267.864	3.53906
268.329	21.36969
268.795	-12.498
269.261	25.23887
269.726	8.90927
270.192	48.31021
270.657	61.32981
271.123	24.52442
271.588	13.46034
272.053	39.99358
272.519	22.72498
272.984	23.40092
273.449	19.38472
273.914	9.87512
274.379	30.55253
274.844	35.44956
275.309	14.70335
275.774	46.27504
276.239	6.38187
276.704	-26.38414
277.169	-4.81845
277.634	46.93394
278.098	9.08983
278.563	23.28509
279.028	14.49106
279.492	42.71346
279.957	0
280.421	57.75302
280.886	17.20168
281.35	17.8547
281.814	21.49175
282.279	-8.10683
282.743	30.99577
283.207	29.16275
283.671	13.41275
284.135	30.38789
284.599	69.99709
285.063	59.17899
285.527	48.02522
285.991	10.44652
286.455	18.67858
286.919	36.70523
287.382	22.11184
287.846	27.82152
288.31	3.19092
288.773	39.68845
289.237	53.38402
289.7	16.53772
290.164	-27.022
290.627	18.27682
291.09	63.21439
291.554	4.91747
292.017	23.29733
292.48	19.71608
292.943	61.40084
293.406	39.24729
293.869	21.58796
294.332	25.63808
294.795	15.46141
295.258	17.85471
295.721	13.99762
296.184	3.63598
296.646	40.7076
297.109	74.41537
297.572	64.04089
298.034	57.02504
298.497	44.67626
298.959	32.97461
299.422	-19.17478
299.884	30.57343
300.346	78.046
300.809	-7.47494
301.271	43.52528
301.733	17.94531
302.195	6.52118
302.657	25.99619
303.119	55.41763
303.581	37.97101
304.043	54.36387
304.505	28.73211
304.967	14.28402
305.429	39.79127
305.891	27.77421
306.352	6.97564
306.814	47.88382
307.275	4.30032
307.737	31.30892
308.198	28.25718
308.66	25.3135
309.121	6.31468
309.583	27.62857
310.044	35.37873
310.505	39.55613
310.966	19.35292
311.428	45.23398
311.889	45.60844
312.35	18.36444
312.811	11.2342
313.272	1.04147
313.733	30.99577
314.193	97.69117
314.654	35.03033
315.115	4.59695
315.576	39.78054
316.036	43.21461
316.497	54.16195
316.957	4.42383
317.418	44.54952
317.878	44.99608
318.339	74.99792
318.799	-2.80313
319.259	42.67896
319.72	30.33336
320.18	22.3372
320.64	18.99696
321.1	27.34583
321.56	45.12721
322.02	28.71959
322.48	13.92218
322.94	5.71317
323.4	28.7196
323.86	28.16617
324.319	59.25797
324.779	6.02317
325.239	39.99478
325.698	42.41946
326.158	57.13845
326.617	53.00797
327.077	27.35432
327.536	25.92285
327.996	3.06065
328.455	48.52605
328.914	-6.66561
329.373	29.08866
329.832	13.26307
330.292	24.04778
330.751	49.99476
331.21	-42.36585
331.668	23.13624
332.127	53.71305
332.586	51.21343
333.045	49.55193
333.504	-16.66459
333.962	53.56592
334.421	51.94425
334.88	-19.715
335.338	-20.68679
335.797	-47.81965
336.255	29.1107
336.714	24.9954
337.172	25.55217
337.63	29.40827
338.088	20.18001
338.547	41.50434
339.005	31.57489
339.463	39.28175
339.921	19.99826
340.379	12.35764
340.837	45.32966
341.295	14.60455
341.753	35.41233
342.21	49.99614
342.668	-16.50961
343.126	3.92081
343.584	26.03801
344.041	28.86204
344.499	8.60071
344.956	48.27156
345.414	35.06147
345.871	30.7643
346.328	30.55254
346.786	40.51171
347.243	-23.74535
347.7	17.49772
348.157	11.90302
348.614	44.13873
349.071	-47.49445
349.528	9.08947
349.985	28.25534
350.442	-55.93789
350.899	34.087
351.356	55.55116
351.812	-16.66321
352.269	42.67896
352.726	19.22758
353.182	17.6451
353.639	40.30395
354.095	47.18662
354.552	11.8791
355.008	7.46177
355.465	16.09855
355.921	7.79111
356.377	16.08963
356.833	16.97818
357.289	44.90948
357.745	8.40958
358.201	28.70879
358.657	29.27997
359.113	14.03237
359.569	48.16842
360.025	32.16895
360.481	39.52677
360.937	25.15131
361.392	48.82871
361.848	33.32412
362.303	23.48464
362.759	45.10993
363.214	34.22436
363.67	32.53798
364.125	37.04326
364.581	39.76422
365.036	36.5873
365.491	46.53196
365.946	45.20052
366.401	41.96602
366.856	34.06178
367.311	50.26335
367.766	44.65086
368.221	57.48554
368.676	49.97714
369.131	50.07127
369.586	47.22596
370.041	49.18114
370.495	52.62777
370.95	52.86453
371.404	52.59427
371.859	48.89707
372.313	43.4747
372.768	48.09028
373.222	51.4291
373.676	50.17159
374.131	50.33073
374.585	52.99663
375.039	50.79752
375.493	54.62595
375.947	51.78323
376.401	54.38251
376.855	53.19245
377.309	50.81552
377.763	50.38848
378.217	53.74538
378.67	51.93647
379.124	52.9086
379.578	54.2465
380.031	55.87842
380.485	54.18983
380.938	51.93597
381.392	50.25873
381.845	53.27799
382.299	53.48949
382.752	53.57911
383.205	55.55704
383.658	53.04896
384.111	53.91119
384.564	53.02929
385.018	53.00046
385.471	51.87315
385.923	54.32663
386.376	53.69814
386.829	52.07896
387.282	53.72447
387.735	54.1037
388.187	54.86011
388.64	53.85869
389.093	54.69942
389.545	52.42898
389.998	52.97716
390.45	54.84347
390.902	54.98156
391.355	53.84311
391.807	54.55921
392.259	54.94092
392.711	54.36107
393.163	53.64259
393.615	54.90917
394.068	53.63256
394.519	54.86487
394.971	53.83738
395.423	53.513
395.875	54.28621
396.327	53.75433
396.779	53.75269
397.23	53.55051
397.682	54.06146
398.133	54.26609
398.585	54.50036
399.036	53.86173
399.488	54.00875
399.939	53.92703
400.39	53.6024
400.842	53.28627
401.293	54.02837
401.744	54.0147
402.195	52.63983
402.646	53.72824
403.097	52.74607
403.548	53.13578
403.999	52.55318
404.45	53.50138
404.9	52.49214
405.351	52.86237
405.802	52.39482
406.253	53.31385
406.703	52.53288
407.154	52.3703
407.604	52.09202
408.055	52.17676
408.505	52.69796
408.955	51.15994
409.406	51.19694
409.856	52.50301
410.306	51.34026
410.756	51.02787
411.206	50.83267
411.656	50.45843
412.106	50.07481
412.556	50.365
413.006	51.03201
413.456	50.07916
413.905	50.15369
414.355	49.63303
414.805	49.86999
415.254	49.08182
415.704	50.03063
416.153	49.59786
416.603	49.01145
417.052	48.94805
417.502	48.75163
417.951	48.72304
418.4	49.14779
418.849	48.66027
419.298	48.14287
419.748	48.63053
420.197	47.96363
420.646	48.30525
421.094	48.00532
421.543	48.1042
421.992	47.8287
422.441	47.22067
422.89	47.01938
423.338	47.10946
423.787	46.98262
424.236	46.7913
424.684	46.96691
425.133	46.59758
425.581	46.47136
426.029	46.08653
426.478	46.14407
426.926	46.06097
427.374	46.26367
427.822	46.62435
428.27	45.70952
428.718	45.96629
429.166	45.99132
429.614	46.03464
430.062	45.47452
430.51	45.79915
430.958	45.99755
431.406	45.56412
431.853	45.34023
432.301	45.13507
432.749	45.06214
433.196	44.99999
433.644	44.88964
434.091	44.53932
434.538	45.06622
434.986	44.69757
435.433	44.86581
435.88	44.78202
436.327	44.36407
436.775	44.76736
437.222	43.89774
437.669	44.22179
438.116	44.07151
438.563	44.38316
439.009	44.19808
439.456	44.1239
439.903	44.66069
440.35	44.18733
440.796	44.10117
441.243	44.3674
441.689	44.38177
442.136	44.38773
442.582	44.43635
443.029	44.45373
443.475	44.30455
443.921	44.17411
444.368	44.35605
444.814	44.26772
445.26	44.36083
445.706	44.34629
446.152	44.26671
446.598	44.24513
447.044	44.49277
447.49	44.37891
447.936	44.46551
448.381	44.39607
448.827	44.69147
449.273	44.56711
449.718	43.99406
450.164	44.22971
450.61	44.39987
451.055	44.53113
451.5	44.14945
451.946	44.38456
452.391	44.02838
452.836	43.9151
453.282	44.41132
453.727	44.15405
454.172	44.63297
454.617	44.6957
455.062	44.53512
455.507	44.99497
455.952	44.39644
456.396	44.90924
456.841	44.5682
457.286	44.6918
457.731	45.27413
458.175	45.12732
458.62	45.07567
459.064	44.87889
459.509	45.3195
459.953	45.59753
460.398	45.67175
460.842	45.14374
461.286	45.5224
461.73	45.7501
462.174	45.32854
462.619	45.67305
463.063	45.81192
463.507	46.07039
463.951	46.01562
464.394	46.33248
464.838	46.4953
465.282	46.8037
465.726	46.4773
466.17	46.78534
466.613	47.01586
467.057	46.54472
467.5	47.48073
467.944	47.66375
468.387	47.43275
468.831	47.68195
469.274	48.24278
469.717	48.58441
470.16	48.27235
470.603	48.29049
471.047	48.70971
471.49	49.00247
471.933	49.02487
472.376	49.41083
472.818	49.80759
473.261	49.79148
473.704	49.92157
474.147	50.41252
474.59	49.76535
475.032	50.58585
475.475	50.44615
475.917	50.65024
476.36	50.60772
476.802	50.81867
477.245	51.31321
477.687	51.45096
478.129	51.40748
478.571	51.84266
479.013	51.68541
479.456	52.3541
479.898	52.12494
480.34	52.46947
480.782	52.33731
481.224	52.68452
481.665	53.00985
482.107	53.33553
482.549	53.54274
482.991	53.66309
483.432	53.49238
483.874	53.93094
484.315	53.65357
484.757	54.02179
485.198	53.87458
485.64	53.87271
486.081	54.31725
486.522	54.62596
486.963	54.44683
487.405	54.28625
487.846	54.68101
488.287	54.53809
488.728	54.79695
489.169	55.11931
489.61	54.53747
490.05	54.45324
490.491	54.83958
490.932	55.41524
491.373	55.49716
491.813	55.40185
492.254	55.25849
492.694	55.40472
493.135	55.45953
493.575	55.15113
494.016	55.83401
494.456	55.63597
494.896	55.80594
495.336	55.7918
495.777	55.94211
496.217	56.08348
496.657	56.07066
497.097	56.38182
497.537	56.0339
497.977	56.54893
498.416	56.6818
498.856	57.066
499.296	56.93212
499.736	56.97149
500.175	56.80456
500.615	57.20966
501.054	57.48441
501.494	57.47646
501.933	57.35153
502.373	57.76827
502.812	57.81233
503.251	58.14016
503.69	57.6137
504.129	57.97497
504.569	58.15004
505.008	58.10439
505.447	58.94922
505.886	59.19684
506.324	59.00961
506.763	59.31133
507.202	59.75064
507.641	59.74596
508.079	60.04891
508.518	60.54372
508.957	60.36338
509.395	60.966
509.834	61.36475
510.272	60.93319
510.71	62.09683
511.149	61.67616
511.587	61.72028
512.025	61.51676
512.463	61.70232
512.901	61.94605
513.339	62.26698
513.777	63.00463
514.215	62.93493
514.653	63.43639
515.091	63.2082
515.529	63.82047
515.966	63.94296
516.404	63.77272
516.842	63.977
517.279	64.21015
517.717	64.55487
518.154	64.66654
518.592	65.01549
519.029	65.53563
519.466	65.68425
519.904	66.10426
520.341	66.24127
520.778	66.27319
521.215	66.36005
521.652	67.19862
522.089	67.07439
522.526	67.14814
522.963	66.97691
523.399	67.24375
523.836	67.64475
524.273	67.62901
524.71	68.30625
525.146	68.39203
525.583	68.88623
526.019	68.75932
526.456	68.70457
526.892	69.27555
527.328	69.48849
527.765	69.53587
528.201	70.06208
528.637	70.20042
529.073	70.34542
529.509	70.6637
529.945	70.7906
530.381	70.48911
530.817	70.73388
531.253	71.10253
531.689	71.73619
532.124	71.41419
532.56	71.67757
532.996	72.08336
533.431	71.93423
533.867	72.5514
534.302	72.37619
534.738	72.60981
535.173	72.86403
535.608	72.43801
536.044	73.2317
536.479	73.72391
536.914	73.97926
537.349	73.61853
537.784	73.68119
538.219	73.88593
538.654	74.25609
539.089	74.75641
539.524	74.52996
539.959	74.27442
540.393	74.14133
540.828	74.43634
541.263	74.77414
541.697	74.28941
542.132	75.01853
542.566	74.61286
543.001	74.74464
543.435	75.40254
543.869	75.02556
544.303	74.50673
544.738	75.15554
545.172	74.64709
545.606	74.6487
546.04	74.91751
546.474	75.03432
546.908	74.2804
547.342	74.55542
547.775	74.68104
548.209	74.54773
548.643	74.24079
549.077	75.09026
549.51	74.5845
549.944	74.58511
550.377	74.36085
550.811	74.07016
551.244	73.87818
551.677	73.77474
552.111	73.75119
552.544	73.60094
552.977	73.181
553.41	72.65593
553.843	73.25413
554.276	72.56022
554.709	72.82928
555.142	72.74225
555.575	72.75365
556.008	72.7935
556.44	72.58555
556.873	72.10339
557.306	72.10596
557.738	72.33976
558.171	71.21275
558.603	71.67711
559.036	71.18866
559.468	71.08068
559.9	70.72788
560.333	70.2153
560.765	70.02946
561.197	69.90008
561.629	70.12659
562.061	70.06088
562.493	69.43519
562.925	69.30425
563.357	69.30708
563.789	68.47875
564.22	68.68813
564.652	68.85106
565.084	68.20516
565.515	67.86982
565.947	67.93578
566.378	68.29643
566.81	67.74144
567.241	67.60514
567.672	67.18828
568.104	66.97962
568.535	67.15457
568.966	66.30474
569.397	66.28249
569.828	66.2365
570.259	65.7924
570.69	65.55772
571.121	65.01288
571.552	65.13005
571.983	64.48279
572.414	64.22688
572.844	63.57644
573.275	64.2796
573.705	63.57849
574.136	63.58686
574.566	62.80732
574.997	62.78698
575.427	62.26916
575.857	61.91247
576.288	61.79996
576.718	61.3634
577.148	61.51296
577.578	61.41327
578.008	60.29555
578.438	60.56533
578.868	60.53104
579.298	60.54967
579.728	60.18009
580.157	60.13461
580.587	59.37703
581.017	59.67396
581.446	59.16745
581.876	58.92587
582.305	58.69021
582.735	58.31907
583.164	57.92656
583.593	57.5846
584.023	57.62532
584.452	57.4121
584.881	57.60569
585.31	57.0194
585.739	56.90364
586.168	57.0721
586.597	56.96671
587.026	56.29828
587.455	56.05536
587.884	56.0099
588.312	55.70474
588.741	54.88898
589.17	55.25416
589.598	54.81024
590.027	54.87402
590.455	54.77482
590.884	54.41681
591.312	54.25977
591.74	54.12297
592.168	53.97263
592.597	53.59754
593.025	53.65528
593.453	53.30982
593.881	53.11596
594.309	53.01087
594.737	52.48553
595.165	52.28987
595.592	52.11279
596.02	51.75547
596.448	51.78058
596.875	51.34009
597.303	51.31351
597.73	51.06907
598.158	51.23828
598.585	50.9479
599.013	50.39747
599.44	50.27317
599.867	50.17916
600.294	50.38496
600.722	49.90151
601.149	49.98739
601.576	49.82412
602.003	50.03865
602.43	49.63928
602.856	49.39566
603.283	49.216
603.71	49.33145
604.137	48.74008
604.563	48.84164
604.99	49.03153
605.416	48.34827
605.843	48.3749
606.269	48.11854
606.696	48.15183
607.122	47.81122
607.548	47.31241
607.975	47.48779
608.401	47.43967
608.827	46.87874
609.253	46.96522
609.679	47.25135
610.105	46.86526
610.531	46.84994
610.956	46.59464
611.382	46.98649
611.808	46.54701
612.234	46.14488
612.659	45.9213
613.085	46.53087
613.51	46.09125
613.936	45.5568
614.361	46.00229
614.786	46.07096
615.212	45.91773
615.637	45.85535
616.062	46.11729
616.487	45.555
616.912	46.03452
617.337	46.14638
617.762	45.42681
618.187	45.17563
618.612	45.53139
619.037	45.26032
619.461	45.40459
619.886	44.97753
620.311	45.13839
620.735	44.98032
621.16	45.05327
621.584	44.92543
622.008	44.75238
622.433	44.80353
622.857	44.73253
623.281	45.1128
623.705	45.32184
624.13	44.95388
624.554	45.14556
624.978	44.52315
625.402	45.04091
625.826	45.03531
626.249	44.6009
626.673	44.91999
627.097	44.61134
627.521	45.16973
627.944	44.78021
628.368	44.68728
628.791	44.79654
629.215	44.8865
629.638	44.35678
630.061	44.96435
630.485	44.66327
630.908	44.70164
631.331	45.02159
631.754	44.66127
632.177	44.77145
632.6	45.04061
633.023	45.10057
633.446	44.8008
633.869	45.28976
634.292	45.8104
634.715	45.39609
635.137	45.41031
635.56	45.46932
635.982	45.42732
636.405	45.49498
636.827	45.67456
637.25	45.4483
637.672	45.11874
638.094	45.77903
638.517	45.91371
638.939	46.19988
639.361	46.27839
639.783	46.36974
640.205	46.34796
640.627	46.35798
641.049	45.96533
641.471	46.40773
641.893	46.64215
642.314	46.7297
642.736	46.99319
643.158	47.16764
643.579	47.19403
644.001	47.01343
644.422	47.52437
644.844	47.1881
645.265	47.69442
645.686	47.45092
646.107	47.71446
646.529	48.61337
646.95	48.68275
647.371	48.40453
647.792	48.94987
648.213	48.88783
648.634	48.66123
649.055	49.46102
649.475	49.79803
649.896	49.50828
650.317	49.98938
650.737	49.71129
651.158	49.86279
651.578	49.65552
651.999	49.67253
652.419	50.15142
652.84	50.49244
653.26	50.75277
653.68	50.96562
654.1	51.30648
654.521	51.53746
654.941	51.47225
655.361	51.68184
655.781	51.96076
656.2	51.59431
656.62	51.72115
657.04	52.0208
657.46	52.19743
657.879	52.31573
658.299	52.36162
658.719	53.34328
659.138	52.7498
659.558	53.36179
659.977	53.39414
660.396	53.52088
660.816	53.88932
661.235	54.29432
661.654	53.93726
662.073	53.92257
662.492	54.8731
662.911	55.10263
663.33	54.85898
663.749	54.79225
664.168	54.92024
664.587	55.01265
665.006	55.26796
665.424	55.54701
665.843	55.44529
666.261	55.86836
666.68	55.6753
667.098	56.30236
667.517	56.26214
667.935	56.25863
668.353	55.70258
668.772	55.74271
669.19	56.0034
669.608	56.04752
670.026	56.26004
670.444	56.69208
670.862	56.45617
671.28	56.42037
671.698	56.64074
672.115	57.02668
672.533	57.21182
672.951	57.31176
673.368	56.86035
673.786	56.68375
674.203	56.48191
674.621	56.84139
675.038	56.50982
675.456	56.93162
675.873	57.06763
676.29	57.34823
676.707	56.99656
677.124	57.20439
677.541	56.87555
677.958	56.33948
678.375	57.28326
678.792	56.77401
679.209	56.63243
679.626	56.91634
680.043	57.20616
680.459	56.96589
680.876	56.88113
681.292	56.86913
681.709	56.69557
682.125	56.91019
682.542	56.49329
682.958	56.16988
683.374	56.65437
683.79	56.36845
684.207	56.10811
684.623	56.23141
685.039	56.36185
685.455	56.2696
685.871	55.95383
686.286	56.31042
686.702	56.03374
687.118	56.45236
687.534	55.99015
687.949	55.98398
688.365	55.62084
688.781	55.61476
689.196	55.3837
689.611	54.90693
690.027	55.11722
690.442	54.54994
690.857	54.91419
691.273	54.5846
691.688	54.89209
692.103	54.74186
692.518	53.66657
692.933	53.95196
693.348	53.97211
693.763	53.97955
694.177	53.31639
694.592	53.27884
695.007	52.86986
695.421	52.77391
695.836	52.0113
696.25	51.6596
696.665	51.19805
697.079	51.3241
697.494	51.35716
697.908	51.29471
698.322	50.89957
698.736	50.84518
699.151	50.60562
699.565	50.91319
699.979	50.89838
700.393	50.49192
700.806	50.15663
701.22	49.86847
701.634	49.33937
702.048	49.66831
702.461	49.41616
702.875	49.30995
703.289	49.03109
703.702	49.25124
704.116	48.42034
704.529	48.85287
704.942	48.18595
705.356	48.5261
705.769	47.49074
706.182	48.1473
706.595	47.61185
707.008	47.37757
707.421	46.86255
707.834	46.15509
708.247	46.33382
708.66	45.65114
709.072	46.11433
709.485	45.4016
709.898	45.6133
710.31	44.96048
710.723	44.78246
711.135	44.32947
711.548	44.19391
711.96	43.86429
712.373	43.7997
712.785	42.91116
713.197	43.32491
713.609	42.52024
714.021	42.46691
714.433	41.68547
714.845	41.90129
715.257	41.52091
715.669	41.81945
716.081	40.82023
716.493	40.81686
716.904	40.15407
717.316	40.24131
717.727	39.84899
718.139	39.02031
718.55	39.06807
718.962	39.12488
719.373	38.88245
719.784	38.29404
720.196	38.17833
720.607	37.87745
721.018	37.98467
721.429	37.64261
721.84	37.27323
722.251	36.93093
722.662	37.10746
723.073	36.35269
723.483	36.47173
723.894	36.26667
724.305	35.88999
724.715	35.48206
725.126	35.17735
725.536	35.20487
725.947	34.74919
726.357	34.90985
726.768	34.87167
727.178	34.01014
727.588	33.50535
727.998	33.50209
728.408	33.31089
728.818	33.28554
729.228	33.22448
729.638	33.15631
730.048	32.68312
730.458	32.87979
730.868	32.57721
731.277	32.56302
731.687	31.93987
732.097	32.07465
732.506	31.75745
732.916	31.7409
733.325	31.32664
733.734	31.56454
734.144	31.06171
734.553	31.10423
734.962	30.4731
735.371	30.71249
735.78	30.14727
736.189	30.39817
736.598	29.86593
737.007	30.27334
737.416	29.61751
737.825	29.76556
738.233	29.26285
738.642	29.55285
739.051	29.30599
739.459	29.51915
739.868	28.96636
740.276	28.62875
740.684	28.47905
741.093	28.62462
741.501	28.13049
741.909	28.2764
742.317	28.18993
742.725	27.7689
743.133	28.19664
743.541	27.42721
743.949	27.81165
744.357	27.44204
744.765	28.03099
745.173	27.19836
745.58	27.75018
745.988	27.18982
746.396	27.47493
746.803	27.20652
747.211	27.30851
747.618	26.95052
748.025	26.95113
748.433	26.84514
748.84	26.15512
749.247	26.43489
749.654	26.2484
750.061	26.33846
750.468	25.82611
750.875	26.32039
751.282	25.38048
751.689	25.98021
752.096	25.61852
752.502	25.73612
752.909	25.56263
753.316	25.5293
753.722	25.53027
754.129	25.36162
754.535	25.626
754.941	25.28057
755.348	25.38906
755.754	24.7772
756.16	24.89224
756.566	24.45528
756.972	25.01196
757.378	24.5107
757.784	24.79577
758.19	24.26601
758.596	24.21836
759.002	24.85939
759.408	24.02565
759.813	24.48667
760.219	23.99178
760.624	24.636
761.03	24.09667
761.435	23.87947
761.841	23.67769
762.246	23.51208
762.651	23.84056
763.057	23.31906
763.462	24.54366
763.867	24.17019
764.272	24.52269
764.677	24.28013
765.082	24.39535
765.487	24.2687
765.892	23.98259
766.296	24.29155
766.701	23.54504
767.106	24.20788
767.51	23.39617
767.915	23.88606
768.319	23.7976
768.724	23.73416
769.128	23.86555
769.532	23.25767
769.936	24.00584
770.341	23.1972
770.745	23.64038
771.149	23.22141
771.553	23.57083
771.957	23.36728
772.361	23.2023
772.764	24.05336
773.168	23.12426
773.572	23.82807
773.976	23.15148
774.379	23.46919
774.783	23.10174
775.186	23.06772
775.59	23.14717
775.993	22.88736
776.396	23.22318
776.8	22.74151
777.203	22.6336
777.606	23.05232
778.009	22.63705
778.412	23.26121
778.815	22.4308
779.218	22.80089
779.621	22.68586
780.023	22.62817
780.426	22.80647
780.829	22.79403
781.231	23.23108
781.634	22.47903
782.036	23.05832
782.439	22.61907
782.841	22.72163
783.244	23.18399
783.646	22.48712
784.048	23.16234
784.45	22.72138
784.852	22.85806
785.254	22.41597
785.656	22.54937
786.058	22.71501
786.46	22.35701
786.862	22.30604
787.264	22.44317
787.665	22.27758
788.067	22.68244
788.468	22.45951
788.87	22.6859
789.271	22.3964
789.673	23.08288
790.074	22.79294
790.475	22.63121
790.877	22.77068
791.278	22.05786
791.679	22.9394
792.08	22.71356
792.481	22.47949
792.882	22.55117
793.283	22.27182
793.683	22.73208
794.084	22.37729
794.485	22.65355
794.886	22.72486
795.286	22.10673
795.687	22.49989
796.087	22.41918
796.487	22.50345
796.888	22.66393
797.288	22.16987
797.688	23.00641
798.088	22.44143
798.489	22.63694
798.889	22.80351
799.289	22.4111
799.689	23.22351
800.088	22.40967
800.488	22.68728
800.888	22.89891
801.288	22.73182
801.687	23.37874
802.087	22.75802
802.486	22.55443
802.886	22.89961
803.285	22.70543
803.685	23.33074
804.084	22.65126
804.483	22.54363
804.882	23.49435
805.281	22.34028
805.68	23.2667
806.079	22.93913
806.478	22.94383
806.877	23.01777
807.276	23.1256
807.675	23.00833
808.074	22.87538
808.472	22.78097
808.871	23.61084
809.269	22.39703
809.668	23.13738
810.066	22.90834
810.465	22.24623
810.863	22.53282
811.261	22.6194
811.659	22.60745
812.057	23.01699
812.455	22.82871
812.853	22.73809
813.251	22.94603
813.649	22.63847
814.047	22.78945
814.445	22.32329
814.843	22.65414
815.24	22.61009
815.638	22.46179
816.035	23.25156
816.433	22.83616
816.83	22.49323
817.228	23.20742
817.625	22.50067
818.022	22.78647
818.419	23.08214
818.816	22.55026
819.213	23.04945
819.61	22.78368
820.007	22.90334
820.404	23.46707
820.801	23.11172
821.198	23.73456
821.595	23.73133
821.991	23.44385
822.388	24.33913
822.784	24.07946
823.181	24.43631
823.577	24.8636
823.974	24.70157
824.37	24.99941
824.766	24.58394
825.162	24.37797
825.558	24.5269
825.954	23.8902
826.35	23.99228
826.746	24.55268
827.142	23.98497
827.538	24.48104
827.934	24.93354
828.33	24.27954
828.725	24.54579
829.121	24.47974
829.516	23.73414
829.912	24.28657
830.307	23.79872
830.703	23.80286
831.098	23.57656
831.493	23.07394
831.888	23.7405
832.283	23.39731
832.678	23.18787
833.073	23.75203
833.468	23.61026
833.863	23.64772
834.258	24.19412
834.653	24.03428
835.048	24.09309
835.442	24.43082
835.837	24.25705
836.231	24.38645
836.626	24.78275
837.02	24.4216
837.415	24.08278
837.809	24.09
838.203	23.99695
838.597	24.4703
838.991	23.32582
839.385	23.5241
839.779	23.78066
840.173	23.13643
840.567	24.15541
840.961	24.34319
841.355	23.96288
841.748	24.35477
842.142	24.58916
842.536	24.69605
842.929	25.02633
843.323	24.74276
843.716	24.51972
844.109	25.42109
844.503	24.42176
844.896	24.3671
845.289	25.30631
845.682	24.40442
846.075	23.92098
846.468	25.17954
846.861	25.06901
847.254	25.06082
847.647	24.91162
848.04	24.63599
848.432	24.69729
848.825	24.76667
849.217	24.1431
849.61	25.49956
850.002	25.03967
850.395	24.30182
850.787	25.25203
851.179	24.1785
851.572	24.62764
851.964	24.92106
852.356	25.01913
852.748	24.25026
853.14	24.63713
853.532	25.07683
853.924	24.1243
854.315	25.10439
854.707	24.41249
855.099	25.49533
855.491	24.76988
855.882	23.95569
856.274	24.82531
856.665	24.66465
857.056	24.38802
857.448	23.64546
857.839	25.56756
858.23	25.07279
858.621	24.73997
859.012	25.02391
859.403	24.10277
859.794	25.14345
860.185	25.23981
860.576	24.62316
860.967	25.30481
861.358	24.56008
861.748	24.85268
862.139	24.66171
862.529	24.46308
862.92	24.63467
863.31	24.80363
863.701	25.93308
864.091	23.73663
864.481	24.24021
864.872	25.21298
865.262	24.47617
865.652	25.6437
866.042	24.98663
866.432	24.32712
866.822	24.92597
867.211	25.22355
867.601	24.91311
867.991	25.70438
868.381	24.99443
868.77	24.93347
869.16	24.9127
869.549	24.16854
869.939	24.02308
870.328	24.23705
870.717	25.48752
871.106	24.43698
871.496	24.44803
871.885	25.18486
872.274	24.00295
872.663	25.1153
873.052	25.39957
873.441	24.46163
873.829	24.09124
874.218	24.77295
874.607	24.29321
874.996	24.39922
875.384	25.177
875.773	24.37893
876.161	24.03863
876.549	24.37241
876.938	24.66547
877.326	24.07626
877.714	24.93523
878.102	24.06988
878.491	23.98744
878.879	24.64116
879.267	24.05955
879.655	23.89294
880.042	24.9572
880.43	24.94199
880.818	24.2388
881.206	24.8368
881.593	25.26667
881.981	25.07036
882.368	25.55584
882.756	25.41602
883.143	25.45031
883.53	25.3684
883.918	25.6378
884.305	24.87205
884.692	24.58543
885.079	25.23164
885.466	24.97424
885.853	24.96893
886.24	25.00008
886.627	24.64497
887.014	24.21051
887.4	24.48272
887.787	24.53437
888.174	24.41121
888.56	24.89095
888.947	25.03323
889.333	24.10427
889.719	24.35793
890.106	24.73067
890.492	24.2697
890.878	23.48212
891.264	24.53762
891.65	24.27912
892.036	23.54378
892.422	24.53897
892.808	23.85408
893.194	23.26958
893.58	24.13769
893.965	24.30548
894.351	23.81364
894.736	24.1499
895.122	24.30688
895.507	23.82102
895.893	23.70999
896.278	24.36616
896.663	24.58854
897.049	24.46152
897.434	24.39384
897.819	24.029
898.204	24.30052
898.589	24.45535
898.974	24.21108
899.359	23.83238
899.743	23.47386
900.128	24.50977
900.513	23.25625
900.897	23.34119
901.282	23.44544
901.667	23.51183
902.051	23.39941
902.435	23.45234
902.82	23.22258
903.204	22.78381
903.588	23.98765
903.972	23.94414
904.356	23.6984
904.74	23.51502
905.124	24.06908
905.508	23.97272
905.892	23.80588
906.276	23.97248
906.659	23.99638
907.043	23.70856
907.427	24.11405
907.81	24.21983
908.194	23.34313
908.577	23.86782
908.96	24.38901
909.344	24.76818
909.727	23.90286
910.11	24.10476
910.493	23.98427
910.876	23.35482
911.259	24.19312
911.642	23.88908
912.025	23.40786
912.408	23.15777
912.79	23.41806
913.173	23.24655
913.556	23.01363
913.938	23.43735
914.321	24.01431
914.703	23.3099
915.086	22.87845
915.468	23.76909
915.85	23.23937
916.232	23.47202
916.614	23.54676
916.996	23.66576
917.378	23.6472
917.76	23.40783
918.142	23.88851
918.524	23.42904
918.906	23.63861
919.288	23.12942
919.669	24.03462
920.051	23.32366
920.432	24.31554
920.814	24.51985
921.195	23.59402
921.577	23.15656
921.958	23.92783
922.339	23.40378
922.72	23.09665
923.101	23.03913
923.482	23.90414
923.863	22.82947
924.244	23.92446
924.625	24.0929
925.006	23.41764
925.387	23.00565
925.767	23.56664
926.148	23.54756
926.528	23.44321
926.909	22.57743
927.289	23.7323
927.67	24.17622
928.05	23.13539
928.43	23.20032
928.81	23.74336
929.191	23.41821
929.571	23.17114
929.951	22.90531
930.331	23.22536
930.71	23.98139
931.09	23.58869
931.47	23.6845
931.85	23.6989
932.229	23.07614
932.609	23.10027
932.988	23.33904
933.368	22.91571
933.747	22.23651
934.127	23.59736
934.506	23.2306
934.885	22.11101
935.264	23.16743
935.643	22.39638
936.022	23.20965
936.401	23.75134
936.78	22.52784
937.159	23.45658
937.538	21.61101
937.916	22.16708
938.295	22.99202
938.674	22.84765
939.052	23.2422
939.431	22.42491
939.809	22.26445
940.187	23.60676
940.566	22.72705
940.944	21.96524
941.322	22.53988
941.7	21.89445
942.078	22.88008
942.456	23.23356
942.834	24.38589
943.212	21.40606
943.59	22.57996
943.968	21.39157
944.345	20.88167
944.723	22.17319
945.1	23.6275
945.478	21.07056
945.855	22.20579
946.233	21.48416
946.61	22.46378
946.987	21.54737
947.365	21.59645
947.742	22.4366
948.119	21.87065
948.496	22.29391
948.873	21.21614
949.25	21.49466
949.626	22.77742
950.003	20.70363
950.38	20.89578
950.756	21.22901
951.133	21.46192
951.51	20.72332
951.886	19.7416
952.262	22.23849
952.639	22.39417
953.015	19.84407
953.391	21.71199
953.767	20.60049
954.143	21.85453
954.519	22.51332
954.895	20.4011
955.271	20.87128
955.647	19.17798
956.023	20.15368
956.399	20.68951
956.774	23.01266
957.15	19.36773
957.525	18.9222
957.901	19.78685
958.276	19.86917
958.652	19.28281
959.027	20.5128
959.402	19.99573
959.777	19.88066
960.152	19.45669
960.527	19.77665
960.902	19.90075
961.277	20.17423
961.652	20.59872
962.027	20.56168
962.402	20.39666
962.776	21.44258
963.151	20.08836
963.525	20.22643
963.9	21.86359
964.274	22.16481
964.649	20.66817
965.023	20.42759
965.397	19.87288
965.771	20.69019
966.146	20.08685
966.52	18.67843
966.894	21.68472
967.268	21.63366
967.641	18.45879
968.015	19.42571
968.389	19.05547
968.763	19.42775
969.136	19.86384
969.51	20.44303
969.883	21.62053
970.257	19.50063
970.63	20.49291
971.003	19.40048
971.377	19.82419
971.75	19.51619
972.123	22.66782
972.496	20.24633
972.869	20.29614
973.242	21.29387
973.615	18.9398
973.988	20.68913
974.36	19.53799
974.733	19.20019
975.106	19.78101
975.478	20.9612
975.851	20.36494
976.223	19.61041
976.596	18.91426
976.968	20.03994
977.34	19.60474
977.712	19.93666
978.085	18.01187
978.457	19.68442
978.829	19.81869
979.201	18.91388
979.573	18.32849
979.944	19.51793
980.316	19.6486
980.688	20.17687
981.059	19.69281
981.431	19.32325
981.803	21.31207
982.174	21.24843
982.545	20.31217
982.917	21.10131
983.288	20.03333
983.659	19.47532
984.03	20.06731
984.401	18.57711
984.772	20.49211
985.143	18.91877
985.514	19.24581
985.885	19.34181
986.256	21.07964
986.627	19.59291
986.997	19.80159
987.368	17.9137
987.738	20.24265
988.109	18.9467
988.479	17.31236
988.85	17.88475
989.22	18.14443
989.59	18.34484
989.96	17.39327
990.33	18.46741
990.7	18.8791
991.07	17.96597
991.44	18.09465
991.81	17.71105
992.18	19.08621
992.549	19.27414
992.919	19.70021
993.289	17.89337
993.658	18.2428
994.028	19.67683
994.397	18.04376
994.766	16.94704
995.136	21.49786
995.505	18.65314
995.874	22.03473
996.243	16.9282
996.612	19.03414
996.981	18.88449
997.35	19.35601
997.719	20.64241
998.088	18.4578
998.456	19.05493
998.825	20.18833
999.194	19.12108
999.562	16.9452
999.931	20.98901
1000.299	15.67827
1000.667	19.46428
1001.036	19.34711
1001.404	17.64541
1001.772	19.54392
1002.14	19.0773
1002.508	19.236
1002.876	19.29752
1003.244	20.69661
1003.612	14.99486
1003.98	20.89761
1004.347	16.69608
1004.715	14.01645
1005.083	17.81838
1005.45	17.88699
1005.818	17.34371
1006.185	19.65696
1006.552	17.33295
1006.92	20.78073
1007.287	17.47679
1007.654	16.99799
1008.021	18.12505
1008.388	18.6231
1008.755	16.81032
1009.122	16.324
1009.489	18.81259
1009.856	19.63106
1010.222	17.8156
1010.589	16.64472
1010.956	16.8928
1011.322	19.33998
1011.689	15.14689
1012.055	15.96359
1012.421	17.87041
1012.788	15.19571
1013.154	22.47363
1013.52	19.88319
1013.886	17.72331
1014.252	19.03422
1014.618	18.35316
1014.984	15.25137
1015.35	19.44719
1015.716	18.84694
1016.081	21.53395
1016.447	20.63689
1016.813	19.89426
1017.178	18.60109
1017.544	18.45941
1017.909	17.31281
1018.274	23.65413
1018.64	18.82463
1019.005	17.69876
1019.37	11.13204
1019.735	20.34639
1020.1	17.4971
1020.465	16.9753
1020.83	15.57227
1021.195	18.9053
1021.56	25.34802
1021.924	14.03728
1022.289	4.48541
1022.654	13.83413
1023.018	15.38134
1023.383	12.01975
1023.747	23.13675
1024.111	7.27871
1024.476	23.20777
1024.84	11.7743
1025.204	14.32188
1025.568	13.36344
1025.932	23.70047
1026.296	16.87902
1026.66	16.68721
1027.024	20.15111
1027.387	6.71883
1027.751	19.68263
1028.115	17.71806
1028.478	11.26775
1028.842	16.8487
1029.205	15.0329
1029.569	18.28717
1029.932	10.94749
1030.295	20.2731
1030.659	13.05645
1031.022	8.94129
1031.385	33.78067
1031.748	16.92941
1032.111	14.96611
1032.474	6.76607
1032.836	13.8726
1033.199	23.02332
1033.562	20.31345
1033.924	15.59867
1034.287	17.0809
1034.65	22.29674
1035.012	-0.80586
1035.374	31.06322
1035.737	20.50913
1036.099	17.56936
1036.461	13.21495
1036.823	7.77609
1037.185	18.62393
1037.547	4.61783
1037.909	22.10753
1038.271	20.63802
1038.633	9.58406
1038.995	18.42802
1039.356	26.3966
1039.718	10.64747
1040.08	16.60488
1040.441	12.05085
1040.803	3.4946
1041.164	15.62922
1041.525	7.06347
1041.886	0.99463
1042.248	22.92306
1042.609	24.98979
1042.97	11.93931
1043.331	25.23797
1043.692	6.46275
1044.053	9.81958
1044.413	10.07621
1044.774	33.94336
1045.135	10.29618
1045.495	18.39261
1045.856	-0.92983
1046.216	1.44869
1046.577	16.21026
1046.937	-5.23069
1047.298	18.77293
