Data from 1017water_Reflection__10__21-01-11-726.txt Node

Date: Fri Oct 17 21:01:11 AST 2025
User: lin
Spectrometer: SR600411
Trigger mode: 0
Integration Time (sec): 5.846600E-2
Scans to average: 5
Nonlinearity correction enabled: true
Boxcar width: 0
Storing dark spectrum: false
XAxis mode: Wavelengths
Number of Pixels in Spectrum: 2048
>>>>>Begin Spectral Data<<<<<
187.982	45.59359
188.456	56.43351
188.93	43.71479
189.403	49.98567
189.877	46.81989
190.351	49.36297
190.825	34.8905
191.298	43.763
191.772	53.61684
192.246	34.44043
192.719	46.14362
193.193	28.37507
193.666	56.65501
194.139	54.49501
194.613	51.57685
195.086	55.83828
195.559	53.98282
196.033	62.24211
196.506	53.04196
196.979	56.29068
197.452	54.35281
197.925	61.31579
198.398	42.65766
198.871	63.80193
199.344	51.99435
199.816	52.8024
200.289	43.92141
200.762	38.23232
201.235	53.67653
201.707	49.51783
202.18	28.16956
202.652	26.73752
203.125	46.28833
203.597	59.08461
204.07	36.30467
204.542	29.88368
205.014	32.35818
205.486	46.50317
205.959	60.34703
206.431	26.40899
206.903	42.03065
207.375	13.96736
207.847	22.0542
208.319	41.98023
208.791	12.84162
209.263	13.73739
209.734	46.03634
210.206	59.08565
210.678	40.53348
211.15	12.69565
211.621	14.38001
212.093	14.87301
212.564	65.64302
213.036	34.50822
213.507	52.69541
213.979	30.67812
214.45	41.7738
214.921	0
215.392	35.2404
215.864	12.81793
216.335	22.21915
216.806	38.23053
217.277	-4.58612
217.748	36.8351
218.219	39.99501
218.69	42.59537
219.161	7.57484
219.631	7.69085
220.102	41.85425
220.573	17.96502
221.043	33.32991
221.514	10.48157
221.985	5.04957
222.455	-7.6906
222.926	16.36066
223.396	37.49407
223.866	1.05244
224.337	72.16934
224.807	25.87913
225.277	52.10918
225.747	22.21822
226.217	38.7024
226.687	14.12823
227.157	27.42168
227.627	-11.53648
228.097	26.98751
228.567	34.50822
229.037	64.11618
229.507	37.94982
229.977	13.18475
230.446	-26.02266
230.916	41.48485
231.386	22.10203
231.855	39.99336
232.325	35.28874
232.794	58.46891
233.263	32.57002
233.733	30.47179
234.202	42.32915
234.671	22.60471
235.14	39.00046
235.61	49.16073
236.079	17.01865
236.548	19.99652
237.017	27.92351
237.486	-1.75398
237.955	19.58461
238.424	47.18662
238.892	51.45122
239.361	25.9208
239.83	19.50965
240.299	6.36234
240.767	-6.34837
241.236	34.56427
241.704	34.68949
242.173	24.35613
242.641	7.84168
243.109	52.97847
243.578	39.83768
244.046	39.99692
244.514	33.62333
244.982	36.99538
245.451	34.40445
245.919	16.83947
246.387	24.62194
246.855	22.44392
247.323	42.21788
247.791	-2.29845
248.258	19.18888
248.726	46.06305
249.194	55.80976
249.662	37.34555
250.129	-17.11272
250.597	23.41948
251.064	23.01671
251.532	3.19092
251.999	-7.95305
252.467	67.00607
252.934	42.62942
253.401	5.1011
253.869	-1.0099
254.336	36.04259
254.803	3.27792
255.27	30.52233
255.737	0
256.204	9.85791
256.671	35.63898
257.138	47.2673
257.605	42.97693
258.072	11.53531
258.539	-2.53124
259.005	16.6632
259.472	22.87047
259.939	13.57837
260.405	1.09871
260.872	44.2823
261.338	45.21175
261.805	34.08504
262.271	21.67352
262.737	29.02847
263.203	11.84054
263.67	45.8662
264.136	10.21649
264.602	18.82096
265.068	13.95145
265.534	19.48786
266	17.85389
266.466	9.20927
266.932	36.87963
267.398	16.46827
267.864	-8.84741
268.329	42.74175
268.795	-34.71557
269.261	23.29733
269.726	9.89921
270.192	40.44519
270.657	11.99843
271.123	22.63784
271.588	-7.69146
272.053	42.95641
272.519	7.57484
272.984	19.14606
273.449	0
273.914	8.64071
274.379	44.44092
274.844	35.44956
275.309	14.70335
275.774	43.79576
276.239	11.70021
276.704	0
277.169	-6.02305
277.634	35.70983
278.098	37.87572
278.563	39.72257
279.028	20.28765
279.492	32.0344
279.957	14.28402
280.421	52.58049
280.886	36.55487
281.35	52.3768
281.814	31.77111
282.279	9.45821
282.743	11.99791
283.207	21.87176
283.671	23.16784
284.135	-8.82159
284.599	8.57034
285.063	25.50652
285.527	37.78936
285.991	34.32537
286.455	5.49357
286.919	43.03414
287.382	30.76485
287.846	38.2555
288.31	42.54865
288.773	35.1086
289.237	53.38402
289.7	21.04826
290.164	-44.58516
290.627	21.50227
291.09	72.41035
291.554	-70.47731
292.017	68.92768
292.48	-8.44942
292.943	40.34816
293.406	2.80316
293.869	22.72421
294.332	10.25499
294.795	13.39984
295.258	-1.19028
295.721	37.99534
296.184	-1.81798
296.646	42.1361
297.109	41.85632
297.572	49.4338
298.034	46.86869
298.497	52.12302
298.959	-6.38172
299.422	10.95749
299.884	22.3099
300.346	28.04551
300.809	9.344
301.271	71.7613
301.733	2.56352
302.195	39.12827
302.657	20.99672
303.119	73.49077
303.581	15.18786
304.043	47.56773
304.505	36.77761
304.967	24.28317
305.429	40.81164
305.891	9.9984
306.352	29.06626
306.814	16.89943
307.275	33.32925
307.737	0
308.198	41.29994
308.66	39.23678
309.121	47.36374
309.583	26.31287
310.044	36.14791
310.505	41.75386
310.966	69.35223
311.428	53.56729
311.889	29.81984
312.35	52.03599
312.811	12.35764
313.272	11.45641
313.733	39.99525
314.193	5.76648
314.654	64.22735
315.115	-1.14923
315.576	53.75887
316.036	23.72459
316.497	41.66205
316.957	32.73844
317.418	29.6988
317.878	24.99703
318.339	-23.21111
318.799	14.01614
319.259	59.7522
319.72	20.22188
320.18	28.7196
320.64	11.99791
321.1	13.67248
321.56	34.50822
322.02	4.25456
322.48	12.6565
322.94	40.94736
323.4	49.99535
323.86	-16.89863
324.319	7.40704
324.779	9.63712
325.239	27.26841
325.698	21.20885
326.158	80.21692
326.617	32.52652
327.077	23.58113
327.536	51.84785
327.996	1.02021
328.455	10.29288
328.914	53.32964
329.373	-27.26895
329.832	49.99515
330.292	39.23678
330.751	36.78758
331.21	-32.19843
331.668	31.3998
332.127	45.44861
332.586	49.58741
333.045	26.54431
333.504	-44.43759
333.962	42.85172
334.421	35.06146
334.88	38.02486
335.338	-3.44787
335.797	-30.43117
336.255	3.7969
336.714	55.63911
337.172	-9.99804
337.63	41.1724
338.088	47.70105
338.547	37.73092
339.005	11.57702
339.463	16.66436
339.921	0
340.379	40.44519
340.837	35.99658
341.295	17.97493
341.753	38.53717
342.21	16.66452
342.668	15.59349
343.126	38.23053
343.584	28.12116
344.041	39.17069
344.499	8.60071
344.956	21.83614
345.414	48.04815
345.871	21.36364
346.328	34.719
346.786	28.44361
347.243	14.99798
347.7	7.4989
348.157	-19.04386
348.614	30.62596
349.071	-42.49521
349.528	37.49592
349.985	39.84854
350.442	23.80651
350.899	48.85929
351.356	15.55322
351.812	-17.77405
352.269	15.85149
352.726	36.5337
353.182	4.4112
353.639	26.35164
354.095	22.46884
354.552	24.74876
355.008	10.44652
355.465	17.7932
355.921	5.19405
356.377	10.34323
356.833	41.50435
357.289	49.99416
357.745	16.81947
358.201	30.68882
358.657	47.13595
359.113	9.64716
359.569	33.5706
360.025	25.2131
360.481	41.8522
360.937	32.69748
361.392	38.36405
361.848	26.65856
362.303	28.18196
362.759	44.70344
363.214	24.7666
363.67	39.14097
364.125	44.18552
364.581	49.05735
365.036	46.06343
365.491	39.62339
365.946	34.18757
366.401	42.84056
366.856	38.53842
367.311	52.51059
367.766	53.02635
368.221	47.80123
368.676	46.09797
369.131	52.19898
369.586	47.77538
370.041	50.76287
370.495	50.32551
370.95	56.43109
371.404	56.01577
371.859	47.48206
372.313	45.27819
372.768	46.38651
373.222	50.18741
373.676	54.23704
374.131	51.36437
374.585	54.18827
375.039	53.19839
375.493	55.50596
375.947	46.87622
376.401	54.12587
376.855	53.13237
377.309	50.02631
377.763	49.48229
378.217	54.68564
378.67	51.29881
379.124	51.99363
379.578	52.71997
380.031	54.11718
380.485	54.26933
380.938	52.95859
381.392	51.43997
381.845	54.88997
382.299	51.84692
382.752	49.75068
383.205	51.846
383.658	48.88257
384.111	51.80409
384.564	52.32636
385.018	51.38045
385.471	52.06124
385.923	54.54596
386.376	53.49213
386.829	51.83372
387.282	53.90959
387.735	53.97554
388.187	53.72611
388.64	53.7731
389.093	53.96259
389.545	52.82646
389.998	51.78361
390.45	53.41551
390.902	52.81363
391.355	53.42908
391.807	53.36876
392.259	53.57379
392.711	53.14632
393.163	54.17472
393.615	54.2822
394.068	53.9539
394.519	53.83287
394.971	53.42006
395.423	53.95326
395.875	53.91504
396.327	52.85325
396.779	53.81946
397.23	53.40077
397.682	53.20263
398.133	54.27876
398.585	53.6481
399.036	54.4052
399.488	53.25257
399.939	53.64899
400.39	53.44694
400.842	53.54193
401.293	53.55698
401.744	53.18505
402.195	52.49221
402.646	52.92974
403.097	53.22786
403.548	52.94185
403.999	52.71864
404.45	52.50087
404.9	52.54245
405.351	52.67899
405.802	53.07627
406.253	52.79317
406.703	52.58603
407.154	52.63587
407.604	52.61184
408.055	51.88168
408.505	51.83008
408.955	51.10197
409.406	51.51881
409.856	52.37077
410.306	51.40473
410.756	51.40801
411.206	50.94971
411.656	50.74395
412.106	50.21375
412.556	50.42154
413.006	51.028
413.456	50.65003
413.905	50.29358
414.355	49.61778
414.805	49.99496
415.254	49.33473
415.704	50.38482
416.153	49.31105
416.603	49.67229
417.052	49.29463
417.502	48.96355
417.951	49.47889
418.4	49.00266
418.849	49.07734
419.298	48.27677
419.748	48.51606
420.197	49.20588
420.646	48.92034
421.094	48.3375
421.543	48.57403
421.992	48.35555
422.441	48.12855
422.89	48.28546
423.338	47.69024
423.787	47.33724
424.236	47.26386
424.684	46.99214
425.133	47.2091
425.581	46.63985
426.029	47.10164
426.478	46.40838
426.926	46.45935
427.374	46.60085
427.822	46.69593
428.27	46.09938
428.718	45.91993
429.166	46.2814
429.614	46.47801
430.062	46.02416
430.51	45.79
430.958	46.37011
431.406	45.73263
431.853	45.8992
432.301	45.35014
432.749	45.41266
433.196	45.47421
433.644	45.52242
434.091	45.11768
434.538	45.11751
434.986	45.22719
435.433	45.06883
435.88	44.85982
436.327	44.92365
436.775	45.0428
437.222	44.56201
437.669	44.57899
438.116	44.74892
438.563	44.32681
439.009	44.03986
439.456	44.5362
439.903	44.74038
440.35	44.52504
440.796	44.26176
441.243	44.62415
441.689	44.34084
442.136	44.39411
442.582	44.61364
443.029	44.54652
443.475	44.08303
443.921	44.70399
444.368	43.90716
444.814	44.34391
445.26	44.2561
445.706	44.3116
446.152	44.16783
446.598	44.4874
447.044	44.4628
447.49	44.60055
447.936	44.24563
448.381	44.36772
448.827	44.7697
449.273	44.56211
449.718	44.10122
450.164	44.14304
450.61	44.39321
451.055	44.52432
451.5	44.41779
451.946	44.4063
452.391	44.25921
452.836	44.11048
453.282	44.52537
453.727	44.10468
454.172	44.40567
454.617	44.67187
455.062	44.64995
455.507	44.46889
455.952	44.33
456.396	44.69593
456.841	44.75028
457.286	44.67744
457.731	44.82484
458.175	44.97932
458.62	44.81486
459.064	44.82608
459.509	45.1403
459.953	44.94513
460.398	44.97922
460.842	44.64094
461.286	44.88561
461.73	44.90929
462.174	45.2765
462.619	45.02619
463.063	45.34138
463.507	45.31826
463.951	45.52377
464.394	45.77661
464.838	45.80844
465.282	45.52415
465.726	45.46572
466.17	45.78784
466.613	46.13849
467.057	46.45372
467.5	46.70443
467.944	46.33236
468.387	46.58461
468.831	46.86817
469.274	47.10121
469.717	47.42453
470.16	47.29965
470.603	47.30083
471.047	47.45656
471.49	47.72428
471.933	48.14654
472.376	48.23719
472.818	48.49546
473.261	48.75733
473.704	48.3519
474.147	49.32701
474.59	48.83555
475.032	49.27245
475.475	49.437
475.917	49.38436
476.36	49.21143
476.802	49.73239
477.245	50.07302
477.687	49.81776
478.129	49.69618
478.571	50.34026
479.013	50.82484
479.456	50.9063
479.898	51.24486
480.34	51.49469
480.782	51.41952
481.224	51.9141
481.665	51.98154
482.107	52.16134
482.549	52.40024
482.991	52.3795
483.432	52.51883
483.874	52.74854
484.315	52.53454
484.757	52.99626
485.198	52.90638
485.64	53.11186
486.081	53.40715
486.522	53.39022
486.963	53.68251
487.405	53.43814
487.846	53.79719
488.287	54.10155
488.728	53.86433
489.169	54.05818
489.61	54.03505
490.05	54.06145
490.491	54.30244
490.932	54.84966
491.373	54.57185
491.813	54.60626
492.254	54.54509
492.694	54.75754
493.135	54.90856
493.575	54.70238
494.016	55.38938
494.456	55.34971
494.896	55.2257
495.336	55.64506
495.777	55.45413
496.217	55.6833
496.657	55.65687
497.097	55.79077
497.537	56.12793
497.977	56.08451
498.416	56.4144
498.856	56.49199
499.296	56.61824
499.736	56.74373
500.175	56.7446
500.615	56.76093
501.054	56.53067
501.494	57.03779
501.933	56.79524
502.373	56.94211
502.812	57.26712
503.251	57.54033
503.69	57.46966
504.129	57.9225
504.569	57.75358
505.008	58.03211
505.447	58.51715
505.886	58.7126
506.324	58.91568
506.763	58.45671
507.202	59.73435
507.641	59.41968
508.079	59.35786
508.518	59.64426
508.957	59.85129
509.395	60.65781
509.834	60.60666
510.272	60.92621
510.71	61.40185
511.149	61.33236
511.587	61.45991
512.025	61.07095
512.463	61.84205
512.901	61.72812
513.339	62.13494
513.777	63.14225
514.215	63.17307
514.653	63.21163
515.091	63.21963
515.529	63.61319
515.966	63.7336
516.404	64.03587
516.842	64.05387
517.279	64.58548
517.717	64.36266
518.154	64.98871
518.592	64.70762
519.029	65.75271
519.466	65.63121
519.904	65.88354
520.341	66.22124
520.778	66.49922
521.215	66.75017
521.652	66.99176
522.089	67.24832
522.526	67.66665
522.963	67.24162
523.399	67.68416
523.836	68.26694
524.273	68.52294
524.71	68.38359
525.146	68.6949
525.583	69.17681
526.019	69.57044
526.456	69.2143
526.892	69.62488
527.328	69.94839
527.765	70.02259
528.201	70.50514
528.637	70.69644
529.073	71.19265
529.509	71.10531
529.945	71.26193
530.381	70.93004
530.817	71.22191
531.253	71.02595
531.689	72.31369
532.124	72.05419
532.56	72.22339
532.996	72.91671
533.431	72.7904
533.867	73.26442
534.302	73.29639
534.738	73.28394
535.173	73.59086
535.608	73.29109
536.044	73.98877
536.479	74.47619
536.914	74.12864
537.349	74.30828
537.784	74.14562
538.219	74.39919
538.654	75.044
539.089	74.78843
539.524	74.90237
539.959	75.21552
540.393	74.84696
540.828	75.15176
541.263	75.22278
541.697	74.64675
542.132	75.60931
542.566	75.37163
543.001	75.43929
543.435	75.79831
543.869	75.58619
544.303	75.37028
544.738	75.80451
545.172	75.71171
545.606	75.404
546.04	75.10341
546.474	75.3078
546.908	75.06801
547.342	74.91373
547.775	74.62315
548.209	75.24366
548.643	74.48335
549.077	75.21287
549.51	74.67507
549.944	74.66501
550.377	74.6911
550.811	74.57048
551.244	74.56436
551.677	74.16006
552.111	74.04676
552.544	73.95774
552.977	73.77931
553.41	73.44664
553.843	73.70164
554.276	73.36349
554.709	73.2598
555.142	73.10415
555.575	73.48538
556.008	72.96765
556.44	72.49934
556.873	72.43207
557.306	72.47078
557.738	72.08923
558.171	71.57144
558.603	71.85081
559.036	71.37316
559.468	71.17797
559.9	71.03201
560.333	70.4341
560.765	70.49712
561.197	70.56121
561.629	69.74724
562.061	70.15828
562.493	69.51851
562.925	69.68318
563.357	69.28351
563.789	69.40509
564.22	69.08255
564.652	68.85436
565.084	68.50712
565.515	68.76153
565.947	68.76801
566.378	68.72785
566.81	68.5159
567.241	68.26062
567.672	67.74733
568.104	67.77328
568.535	67.57674
568.966	66.8341
569.397	66.80976
569.828	66.85964
570.259	66.073
570.69	66.13096
571.121	65.41673
571.552	65.89431
571.983	65.3732
572.414	65.41583
572.844	65.13729
573.275	64.90877
573.705	64.83937
574.136	64.2591
574.566	64.04333
574.997	64.01053
575.427	63.75896
575.857	63.12988
576.288	63.06349
576.718	62.86317
577.148	63.1247
577.578	63.1069
578.008	61.73395
578.438	62.1227
578.868	61.95537
579.298	61.7667
579.728	61.78377
580.157	61.24585
580.587	61.33565
581.017	61.55759
581.446	60.82029
581.876	61.03174
582.305	60.37495
582.735	60.39717
583.164	59.99957
583.593	59.15369
584.023	59.40549
584.452	59.42561
584.881	59.456
585.31	59.00302
585.739	58.91042
586.168	58.58529
586.597	58.45761
587.026	58.43563
587.455	58.16374
587.884	58.10872
588.312	57.94517
588.741	57.25949
589.17	57.31973
589.598	57.07326
590.027	57.20182
590.455	57.00305
590.884	56.82282
591.312	56.78528
591.74	56.40425
592.168	56.31041
592.597	56.21436
593.025	55.86806
593.453	55.90164
593.881	55.36642
594.309	55.52182
594.737	54.89332
595.165	54.78973
595.592	54.18219
596.02	54.23138
596.448	54.43856
596.875	54.18262
597.303	53.69999
597.73	53.54057
598.158	53.73971
598.585	53.38336
599.013	53.03409
599.44	53.02631
599.867	53.30298
600.294	52.81905
600.722	52.71923
601.149	52.67325
601.576	52.71506
602.003	52.67274
602.43	52.08162
602.856	52.15135
603.283	51.98179
603.71	51.89789
604.137	51.36906
604.563	51.47699
604.99	51.67456
605.416	51.12752
605.843	51.16939
606.269	51.09299
606.696	50.75739
607.122	50.1569
607.548	50.05431
607.975	50.11974
608.401	49.85578
608.827	50.0625
609.253	50.21811
609.679	49.65247
610.105	49.57139
610.531	49.7573
610.956	49.24849
611.382	49.30653
611.808	49.52827
612.234	49.07185
612.659	48.67639
613.085	48.68663
613.51	48.43013
613.936	48.75749
614.361	48.46882
614.786	48.72478
615.212	48.27676
615.637	48.10391
616.062	48.51539
616.487	48.2928
616.912	48.30574
617.337	48.37024
617.762	48.18757
618.187	47.98566
618.612	47.71665
619.037	47.67995
619.461	47.67471
619.886	47.65815
620.311	47.51522
620.735	47.1131
621.16	47.21976
621.584	47.1598
622.008	47.04065
622.433	47.18159
622.857	47.21308
623.281	47.2717
623.705	47.40908
624.13	46.94189
624.554	46.91785
624.978	46.98523
625.402	46.98627
625.826	46.96611
626.249	47.14792
626.673	46.96054
627.097	47.18553
627.521	46.95951
627.944	47.16535
628.368	46.90263
628.791	47.08763
629.215	46.80558
629.638	46.71664
630.061	46.98339
630.485	46.69851
630.908	46.83456
631.331	46.82832
631.754	46.51646
632.177	47.0244
632.6	46.84777
633.023	46.87586
633.446	46.55052
633.869	47.19389
634.292	47.47159
634.715	47.32614
635.137	46.79248
635.56	47.44311
635.982	47.11523
636.405	47.43971
636.827	47.28817
637.25	47.14346
637.672	47.32031
638.094	47.46931
638.517	47.82614
638.939	47.68284
639.361	47.64537
639.783	47.98408
640.205	47.84063
640.627	47.71018
641.049	47.76639
641.471	47.81259
641.893	47.55789
642.314	48.0377
642.736	48.57801
643.158	48.54877
643.579	48.43014
644.001	48.11169
644.422	48.26441
644.844	48.851
645.265	48.99751
645.686	48.55693
646.107	48.71339
646.529	48.98648
646.95	49.44586
647.371	49.56413
647.792	49.54777
648.213	49.79598
648.634	49.59327
649.055	49.99136
649.475	50.26726
649.896	50.10406
650.317	50.74904
650.737	50.20243
651.158	50.5589
651.578	50.64958
651.999	51.02326
652.419	50.64624
652.84	50.9202
653.26	51.42461
653.68	51.50109
654.1	51.37393
654.521	52.15521
654.941	51.60555
655.361	51.80709
655.781	52.19437
656.2	51.79474
656.62	52.55551
657.04	52.19279
657.46	51.97923
657.879	52.59362
658.299	52.54663
658.719	53.21744
659.138	52.74329
659.558	53.11111
659.977	53.06086
660.396	53.26091
660.816	53.88286
661.235	53.64057
661.654	53.3756
662.073	53.64075
662.492	53.83465
662.911	54.7607
663.33	54.1181
663.749	54.29818
664.168	54.45277
664.587	54.39851
665.006	55.46854
665.424	55.4943
665.843	54.50571
666.261	55.34033
666.68	55.04822
667.098	55.4933
667.517	55.99802
667.935	54.90676
668.353	54.68531
668.772	54.82313
669.19	54.98693
669.608	55.63826
670.026	55.38256
670.444	55.85614
670.862	54.94585
671.28	55.81402
671.698	56.09828
672.115	55.66524
672.533	55.85819
672.951	56.0903
673.368	55.84553
673.786	55.81438
674.203	55.38354
674.621	55.98077
675.038	55.48832
675.456	56.24233
675.873	55.83397
676.29	55.675
676.707	55.75196
677.124	55.44244
677.541	55.70099
677.958	55.42304
678.375	55.88595
678.792	55.72052
679.209	55.64109
679.626	55.70572
680.043	55.39693
680.459	55.98486
680.876	55.44285
681.292	55.51613
681.709	55.50231
682.125	55.23742
682.542	55.60654
682.958	54.72645
683.374	55.43277
683.79	55.09358
684.207	55.26444
684.623	55.36482
685.039	54.75233
685.455	55.27365
685.871	54.39896
686.286	54.9453
686.702	54.5363
687.118	55.07356
687.534	54.53521
687.949	54.56764
688.365	54.14086
688.781	53.88636
689.196	54.06829
689.611	53.30135
690.027	53.53973
690.442	53.2506
690.857	53.30875
691.273	52.89964
691.688	53.4577
692.103	53.2161
692.518	52.15807
692.933	52.82961
693.348	51.88213
693.763	52.10448
694.177	51.67938
694.592	51.38069
695.007	51.05754
695.421	50.79869
695.836	50.69274
696.25	50.03809
696.665	50.28812
697.079	49.94718
697.494	50.25699
697.908	50.02359
698.322	50.0156
698.736	49.16094
699.151	49.38686
699.565	49.50706
699.979	49.14037
700.393	49.17142
700.806	48.59051
701.22	48.40656
701.634	48.1859
702.048	48.55341
702.461	48.03747
702.875	48.3359
703.289	47.45911
703.702	48.19732
704.116	47.37724
704.529	48.32538
704.942	47.14644
705.356	47.60103
705.769	47.00197
706.182	46.88816
706.595	46.71309
707.008	46.26184
707.421	45.90685
707.834	45.39581
708.247	45.26507
708.66	45.17524
709.072	45.67304
709.485	44.53466
709.898	44.34092
710.31	43.57937
710.723	43.93997
711.135	43.43906
711.548	43.33426
711.96	42.80276
712.373	42.39433
712.785	42.24029
713.197	42.32206
713.609	41.93187
714.021	41.90411
714.433	41.18898
714.845	41.22926
715.257	40.94903
715.669	40.81026
716.081	40.35512
716.493	39.9396
716.904	39.59179
717.316	39.57957
717.727	39.70523
718.139	39.24422
718.55	38.80706
718.962	38.54217
719.373	38.6171
719.784	38.11822
720.196	38.09709
720.607	37.59056
721.018	37.66627
721.429	37.41267
721.84	37.27726
722.251	36.67997
722.662	36.86681
723.073	36.31671
723.483	36.3996
723.894	35.82145
724.305	36.1896
724.715	35.0785
725.126	35.21317
725.536	34.49556
725.947	34.93366
726.357	34.41063
726.768	34.70835
727.178	34.10705
727.588	34.19505
727.998	33.38731
728.408	33.27087
728.818	32.8443
729.228	33.64769
729.638	33.08898
730.048	32.80301
730.458	32.82397
730.868	32.4579
731.277	32.44196
731.687	32.19556
732.097	32.34161
732.506	31.98703
732.916	31.80788
733.325	31.80288
733.734	31.71342
734.144	30.91786
734.553	31.1794
734.962	30.51512
735.371	30.55414
735.78	30.08004
736.189	30.47232
736.598	29.47603
737.007	30.13689
737.416	29.37654
737.825	29.59413
738.233	29.36148
738.642	29.70723
739.051	29.13553
739.459	29.38439
739.868	29.12266
740.276	29.33137
740.684	28.59724
741.093	28.72787
741.501	28.26038
741.909	28.44945
742.317	28.1327
742.725	28.39048
743.133	28.27524
743.541	27.82848
743.949	28.1145
744.357	27.71055
744.765	28.16434
745.173	27.39873
745.58	27.64082
745.988	27.23408
746.396	27.59056
746.803	27.05975
747.211	27.20635
747.618	26.98321
748.025	27.18334
748.433	26.63205
748.84	26.64134
749.247	26.36446
749.654	26.53952
750.061	26.74719
750.468	25.99734
750.875	26.37061
751.282	25.77745
751.689	26.22391
752.096	25.63823
752.502	26.17063
752.909	25.37542
753.316	25.77052
753.722	25.81734
754.129	25.63325
754.535	25.43879
754.941	25.43777
755.348	25.33554
755.754	24.73826
756.16	25.25263
756.566	24.60207
756.972	25.23598
757.378	24.61394
757.784	24.92874
758.19	24.80332
758.596	24.3637
759.002	24.80523
759.408	24.27123
759.813	25.15835
760.219	24.30728
760.624	25.08489
761.03	24.17629
761.435	24.40398
761.841	23.81475
762.246	24.03395
762.651	24.09863
763.057	23.82332
763.462	24.62628
763.867	24.49025
764.272	25.03894
764.677	24.67159
765.082	24.65312
765.487	24.39827
765.892	24.33941
766.296	24.39658
766.701	23.74923
767.106	24.35015
767.51	23.53342
767.915	24.01886
768.319	23.76895
768.724	23.94339
769.128	23.6674
769.532	23.55119
769.936	24.14338
770.341	23.22119
770.745	24.08871
771.149	23.59069
771.553	23.99026
771.957	23.58994
772.361	23.84669
772.764	24.18835
773.168	23.56263
773.572	23.96572
773.976	23.13091
774.379	23.7336
774.783	22.97636
775.186	23.65142
775.59	23.44728
775.993	23.0809
776.396	23.59215
776.8	22.95746
777.203	23.07474
777.606	22.85047
778.009	23.08663
778.412	23.73376
778.815	23.00517
779.218	23.7061
779.621	23.2598
780.023	23.54067
780.426	23.18956
780.829	23.17277
781.231	23.24759
781.634	22.93607
782.036	23.42895
782.439	22.93206
782.841	23.3022
783.244	23.41892
783.646	22.81455
784.048	23.54881
784.45	22.97731
784.852	23.54146
785.254	22.84785
785.656	23.12894
786.058	23.0833
786.46	22.77576
786.862	22.6985
787.264	22.53654
787.665	22.94353
788.067	22.88226
788.468	22.69869
788.87	23.16689
789.271	22.83602
789.673	23.89338
790.074	23.26739
790.475	22.89526
790.877	23.42912
791.278	23.16108
791.679	23.41136
792.08	22.63575
792.481	23.16298
792.882	22.89444
793.283	22.84678
793.683	22.97915
794.084	22.69935
794.485	23.05657
794.886	23.37398
795.286	22.6784
795.687	23.46173
796.087	22.85622
796.487	22.93006
796.888	22.90877
797.288	22.54039
797.688	23.74226
798.088	22.76755
798.489	23.39909
798.889	23.30904
799.289	22.86424
799.689	23.52832
800.088	23.12127
800.488	23.48396
800.888	23.40144
801.288	22.83453
801.687	23.67963
802.087	23.43277
802.486	23.57794
802.886	23.29636
803.285	23.42174
803.685	23.45579
804.084	23.09301
804.483	23.19516
804.882	23.52675
805.281	23.46297
805.68	24.07232
806.079	22.84636
806.478	23.86141
806.877	23.82911
807.276	23.45322
807.675	23.78506
808.074	23.22865
808.472	23.54201
808.871	23.87923
809.269	23.19731
809.668	23.56402
810.066	23.8448
810.465	23.04924
810.863	23.82038
811.261	23.07686
811.659	23.61773
812.057	24.04197
812.455	23.93444
812.853	23.7555
813.251	23.553
813.649	23.78693
814.047	23.77046
814.445	23.17846
814.843	23.42777
815.24	23.83482
815.638	23.22847
816.035	23.77816
816.433	23.2878
816.83	23.67885
817.228	23.63381
817.625	23.6448
818.022	23.8669
818.419	23.54505
818.816	23.71827
819.213	23.82837
819.61	23.23977
820.007	24.09796
820.404	24.03879
820.801	23.91871
821.198	24.61343
821.595	24.08904
821.991	24.46918
822.388	25.17354
822.784	24.73255
823.181	25.29685
823.577	25.50426
823.974	25.3362
824.37	25.66818
824.766	25.1665
825.162	25.22781
825.558	25.02494
825.954	24.66012
826.35	24.99371
826.746	25.27056
827.142	24.73189
827.538	25.57683
827.934	25.43168
828.33	25.15604
828.725	25.38463
829.121	25.06953
829.516	25.05066
829.912	25.11095
830.307	24.57642
830.703	24.43378
831.098	24.32523
831.493	24.06143
831.888	24.42877
832.283	24.05196
832.678	24.09744
833.073	24.81075
833.468	24.17023
833.863	24.74103
834.258	25.11861
834.653	24.47722
835.048	25.24682
835.442	25.46573
835.837	24.84772
836.231	25.40597
836.626	24.96897
837.02	24.7326
837.415	24.85567
837.809	24.53869
838.203	25.1854
838.597	24.92272
838.991	23.79787
839.385	24.66931
839.779	24.59467
840.173	24.1909
840.567	25.19024
840.961	25.01969
841.355	24.57633
841.748	25.04341
842.142	25.02601
842.536	24.93012
842.929	25.45705
843.323	25.38715
843.716	24.71177
844.109	26.3218
844.503	25.33463
844.896	24.8343
845.289	26.22614
845.682	25.22086
846.075	25.29343
846.468	25.25409
846.861	25.432
847.254	24.85022
847.647	25.34582
848.04	25.27719
848.432	26.04649
848.825	25.01659
849.217	25.09691
849.61	26.18035
850.002	25.8555
850.395	24.69435
850.787	25.998
851.179	25.56289
851.572	25.38178
851.964	26.10075
852.356	26.18138
852.748	25.13268
853.14	25.08782
853.532	24.8266
853.924	24.89347
854.315	25.11969
854.707	24.71935
855.099	25.34187
855.491	26.29166
855.882	25.31196
856.274	24.93079
856.665	25.77863
857.056	25.68114
857.448	24.90541
857.839	25.61311
858.23	26.42084
858.621	25.40222
859.012	25.80682
859.403	25.34622
859.794	26.08589
860.185	25.78533
860.576	24.66115
860.967	26.24853
861.358	25.06027
861.748	25.23035
862.139	25.65913
862.529	25.7402
862.92	25.31212
863.31	26.81884
863.701	25.42071
864.091	24.98763
864.481	26.02357
864.872	26.47827
865.262	25.14454
865.652	26.07129
866.042	24.76284
866.432	25.82053
866.822	25.67583
867.211	25.79911
867.601	25.31157
867.991	26.37091
868.381	26.17062
868.77	25.36766
869.16	26.19661
869.549	25.75546
869.939	25.3352
870.328	25.51843
870.717	25.84522
871.106	25.26998
871.496	24.98466
871.885	25.82765
872.274	25.91651
872.663	25.91557
873.052	25.61766
873.441	25.65111
873.829	25.06382
874.218	25.6306
874.607	24.95451
874.996	25.10915
875.384	26.11899
875.773	25.11105
876.161	25.15191
876.549	25.73576
876.938	24.69523
877.326	24.91578
877.714	25.53831
878.102	24.96652
878.491	24.86241
878.879	25.11291
879.267	24.6054
879.655	25.14682
880.042	25.85802
880.43	25.37052
880.818	25.33475
881.206	25.982
881.593	25.89455
881.981	25.82205
882.368	26.29205
882.756	26.07251
883.143	25.8335
883.53	26.1691
883.918	25.87236
884.305	25.31184
884.692	25.54399
885.079	25.69252
885.466	25.27173
885.853	25.64176
886.24	25.89553
886.627	25.122
887.014	25.15433
887.4	25.20036
887.787	25.43373
888.174	25.30106
888.56	25.50025
888.947	25.50591
889.333	24.70124
889.719	25.13155
890.106	25.23627
890.492	24.9687
890.878	24.77135
891.264	25.03671
891.65	24.65249
892.036	24.9012
892.422	25.17817
892.808	24.41569
893.194	24.58243
893.58	25.4246
893.965	24.76871
894.351	24.5005
894.736	25.07271
895.122	24.97044
895.507	24.44538
895.893	24.84725
896.278	25.09104
896.663	24.4318
897.049	25.51256
897.434	25.29595
897.819	24.3174
898.204	25.01919
898.589	25.25245
898.974	24.66037
899.359	24.62611
899.743	24.98796
900.128	24.98179
900.513	23.974
900.897	24.0847
901.282	24.54743
901.667	24.28509
902.051	23.94499
902.435	24.70335
902.82	23.63488
903.204	23.73001
903.588	25.14308
903.972	24.50196
904.356	24.00814
904.74	24.32318
905.124	24.95504
905.508	24.42228
905.892	24.44056
906.276	24.75997
906.659	24.01674
907.043	24.72366
907.427	24.91017
907.81	24.84562
908.194	24.87992
908.577	25.01899
908.96	24.84891
909.344	24.71387
909.727	24.74772
910.11	25.61085
910.493	24.81955
910.876	24.33077
911.259	24.96602
911.642	25.09716
912.025	23.85172
912.408	24.32781
912.79	24.6706
913.173	23.39696
913.556	24.37701
913.938	24.63082
914.321	24.64611
914.703	23.93288
915.086	24.35618
915.468	24.8423
915.85	24.03038
916.232	24.39106
916.614	24.72555
916.996	24.77087
917.378	24.04425
917.76	24.4367
918.142	24.41418
918.524	24.24041
918.906	24.11522
919.288	24.44955
919.669	24.56167
920.051	24.59044
920.432	24.70446
920.814	24.80416
921.195	23.54591
921.577	23.9956
921.958	23.75686
922.339	23.89305
922.72	24.28274
923.101	24.06274
923.482	25.05099
923.863	24.21134
924.244	23.46965
924.625	23.67436
925.006	24.37617
925.387	23.73033
925.767	24.58389
926.148	23.92457
926.528	24.15272
926.909	23.97377
927.289	24.3731
927.67	23.87799
928.05	24.38987
928.43	23.64083
928.81	24.63706
929.191	23.47983
929.571	23.54141
929.951	24.009
930.331	23.39661
930.71	24.34485
931.09	23.93068
931.47	24.63525
931.85	24.53291
932.229	22.31289
932.609	23.62872
932.988	24.14315
933.368	24.02212
933.747	23.12573
934.127	24.26499
934.506	24.51946
934.885	22.99951
935.264	23.76557
935.643	22.67306
936.022	24.02493
936.401	24.11415
936.78	23.98415
937.159	24.18172
937.538	22.59381
937.916	22.05634
938.295	23.67115
938.674	22.5375
939.052	23.41433
939.431	23.82719
939.809	23.89515
940.187	24.4331
940.566	23.38657
940.944	23.68172
941.322	23.0821
941.7	23.29169
942.078	21.53676
942.456	24.09449
942.834	23.71186
943.212	21.70189
943.59	23.121
943.968	22.00161
944.345	22.44135
944.723	21.60965
945.1	24.25464
945.478	22.74468
945.855	22.17085
946.233	22.34418
946.61	21.9832
946.987	22.55203
947.365	23.0122
947.742	20.89983
948.119	22.34764
948.496	22.17853
948.873	21.60344
949.25	22.69277
949.626	23.08495
950.003	20.92887
950.38	21.80869
950.756	21.34808
951.133	20.01778
951.51	21.0555
951.886	21.0428
952.262	21.24425
952.639	22.54418
953.015	20.90717
953.391	20.28191
953.767	22.016
954.143	20.24778
954.519	20.6618
954.895	20.84791
955.271	22.09981
955.647	19.27685
956.023	20.10199
956.399	20.53113
956.774	19.95043
957.15	18.75298
957.525	20.60654
957.901	19.16858
958.276	21.05347
958.652	21.94833
959.027	18.75593
959.402	22.06922
959.777	19.4305
960.152	20.69873
960.527	19.48015
960.902	20.48582
961.277	21.36828
961.652	20.39978
962.027	21.70355
962.402	20.69697
962.776	21.50764
963.151	18.8605
963.525	19.57531
963.9	20.75228
964.274	21.03254
964.649	19.81647
965.023	21.26946
965.397	21.75017
965.771	18.02019
966.146	20.74828
966.52	21.36293
966.894	20.60586
967.268	22.02304
967.641	18.64933
968.015	19.66853
968.389	21.73925
968.763	19.32041
969.136	19.88941
969.51	19.36688
969.883	21.11809
970.257	18.73283
970.63	20.27061
971.003	18.64958
971.377	22.3635
971.75	19.29902
972.123	22.57437
972.496	20.91047
972.869	19.14506
973.242	21.52251
973.615	20.36163
973.988	21.41271
974.36	19.18812
974.733	20.91158
975.106	20.22231
975.478	20.20068
975.851	20.91082
976.223	19.4345
976.596	19.14192
976.968	20.45187
977.34	20.0627
977.712	19.98361
978.085	18.54036
978.457	21.05638
978.829	19.00499
979.201	19.66645
979.573	19.80551
979.944	20.65686
980.316	20.1459
980.688	20.48981
981.059	20.20466
981.431	18.88862
981.803	19.48896
982.174	19.96497
982.545	21.10796
982.917	20.57937
983.288	19.73002
983.659	19.64556
984.03	18.72075
984.401	20.60337
984.772	19.76595
985.143	19.11123
985.514	20.34046
985.885	19.78769
986.256	21.02732
986.627	20.19867
986.997	20.26852
987.368	19.75249
987.738	21.00479
988.109	18.92479
988.479	17.39367
988.85	18.65722
989.22	19.77067
989.59	19.29642
989.96	19.09816
990.33	17.98342
990.7	19.51458
991.07	18.55424
991.44	17.14842
991.81	18.65142
992.18	18.5204
992.549	20.22338
992.919	20.58781
993.289	18.88968
993.658	18.11176
994.028	20.99152
994.397	20.22387
994.766	19.43845
995.136	19.40502
995.505	20.68655
995.874	20.28852
996.243	17.59833
996.612	18.82827
996.981	17.58401
997.35	20.5242
997.719	17.8637
998.088	21.00645
998.456	17.56986
998.825	20.26836
999.194	17.9903
999.562	19.28441
999.931	19.32334
1000.299	18.30973
1000.667	18.42823
1001.036	20.45067
1001.404	19.35929
1001.772	21.63586
1002.14	19.4613
1002.508	19.236
1002.876	19.58746
1003.244	21.6197
1003.612	17.92081
1003.98	22.05265
1004.347	18.93183
1004.715	14.88899
1005.083	21.52751
1005.45	19.20296
1005.818	21.58303
1006.185	18.57558
1006.552	17.94742
1006.92	17.86857
1007.287	19.26673
1007.654	18.37696
1008.021	20.2177
1008.388	21.25699
1008.755	19.80928
1009.122	19.68112
1009.489	15.62353
1009.856	19.37429
1010.222	14.40535
1010.589	18.26647
1010.956	19.39929
1011.322	16.40423
1011.689	18.93564
1012.055	16.6263
1012.421	20.63192
1012.788	16.08197
1013.154	16.74657
1013.52	19.19723
1013.886	17.1273
1014.252	19.35974
1014.618	18.75938
1014.984	20.44937
1015.35	17.36865
1015.716	18.75673
1016.081	21.35367
1016.447	21.71834
1016.813	19.71813
1017.178	19.30518
1017.544	22.0269
1017.909	16.97763
1018.274	23.33289
1018.64	20.43217
1019.005	16.87805
1019.37	21.58642
1019.735	21.40368
1020.1	20.43549
1020.465	13.87693
1020.83	17.98929
1021.195	16.92965
1021.56	17.03292
1021.924	21.27961
1022.289	14.80385
1022.654	15.12126
1023.018	12.7904
1023.383	15.9188
1023.747	20.37801
1024.111	5.27695
1024.476	22.54922
1024.84	12.84484
1025.204	22.88228
1025.568	5.13938
1025.932	10.99557
1026.296	14.55054
1026.66	13.63427
1027.024	22.64457
1027.387	9.10313
1027.751	18.16833
1028.115	16.48172
1028.478	20.84743
1028.842	15.86897
1029.205	12.60083
1029.569	11.1022
1029.932	17.70334
1030.295	15.02529
1030.659	10.29429
1031.022	4.99645
1031.385	15.37364
1031.748	23.74956
1032.111	10.59101
1032.474	22.38271
1032.836	14.90032
1033.199	17.79005
1033.562	4.87468
1033.924	6.87354
1034.287	15.29612
1034.65	13.63947
1035.012	12.895
1035.374	23.37315
1035.737	12.42033
1036.099	18.43354
1036.461	14.867
1036.823	11.52043
1037.185	16.76134
1037.547	10.22554
1037.909	13.69972
1038.271	16.50996
1038.633	4.10732
1038.995	15.30433
1039.356	29.65974
1039.718	5.49531
1040.08	16.60488
1040.441	6.37966
1040.803	11.53271
1041.164	0.36344
1041.525	8.47624
1041.886	13.9256
1042.248	9.39403
1042.609	15.93473
1042.97	14.66853
1043.331	15.93889
1043.692	20.68214
1044.053	15.43125
1044.413	5.23951
1044.774	33.94336
1045.135	5.14797
1045.495	25.59063
1045.856	21.38821
1046.216	-3.86309
1046.577	25.66731
1046.937	4.06844
1047.298	19.71165
