Data from 1017water_Reflection__27__21-03-10-232.txt Node

Date: Fri Oct 17 21:03:10 AST 2025
User: lin
Spectrometer: SR600411
Trigger mode: 0
Integration Time (sec): 5.846600E-2
Scans to average: 5
Nonlinearity correction enabled: true
Boxcar width: 0
Storing dark spectrum: false
XAxis mode: Wavelengths
Number of Pixels in Spectrum: 2048
>>>>>Begin Spectral Data<<<<<
187.982	47.28271
188.456	51.54445
188.93	41.14268
189.403	55.50309
189.877	48.71857
190.351	47.81021
190.825	52.53645
191.298	44.16458
191.772	41.11716
192.246	44.48741
192.719	41.81691
193.193	40.60043
193.666	47.07151
194.139	54.92421
194.613	51.89533
195.086	61.18999
195.559	49.98271
196.033	49.29338
196.506	50.49087
196.979	48.28066
197.452	61.91885
197.925	55.44839
198.398	54.021
198.871	72.02738
199.344	43.66126
199.816	53.69265
200.289	63.16893
200.762	48.75787
201.235	44.2504
201.707	51.87634
202.18	50.2673
202.652	38.9454
203.125	43.20201
203.597	36.3576
204.07	32.39449
204.542	47.81701
205.014	41.05289
205.486	29.64407
205.959	59.75528
206.431	9.43128
206.903	49.03682
207.375	21.31902
207.847	33.08228
208.319	28.16955
208.791	22.01465
209.263	6.10539
209.734	51.07227
210.206	36.3586
210.678	33.10162
211.15	7.93469
211.621	13.69522
212.093	27.26799
212.564	74.04083
213.036	20.35036
213.507	32.42602
213.979	59.0867
214.45	47.25308
214.921	-15.99633
215.392	39.33851
215.864	36.74676
216.335	18.88616
216.806	42.15195
217.277	-12.84091
217.748	42.09793
218.219	61.89986
218.69	42.59537
219.161	22.72498
219.631	17.30475
220.102	41.07909
220.573	14.05944
221.043	19.22837
221.514	8.86899
221.985	26.25884
222.455	9.6136
222.926	1.81779
223.396	48.43118
223.866	10.52454
224.337	39.12501
224.807	21.17366
225.277	42.2501
225.747	38.45606
226.217	19.99509
226.687	31.51781
227.157	20.56578
227.627	2.56372
228.097	29.44116
228.567	48.66698
229.037	12.97417
229.507	48.16841
229.977	28.56776
230.446	1.36967
230.916	22.3372
231.386	39.99549
231.855	17.13893
232.325	43.69169
232.794	53.38403
233.263	9.08875
233.733	39.04267
234.202	29.92133
234.671	31.29945
235.14	28.36313
235.61	60.82768
236.079	7.44553
236.548	59.08565
237.017	13.51095
237.486	32.4512
237.955	40.20157
238.424	19.0984
238.892	15.53131
239.361	50.36369
239.83	39.02053
240.299	41.81289
240.767	-7.93544
241.236	35.79878
241.704	0
242.173	33.3299
242.641	-9.80175
243.109	51.48591
243.578	47.64994
244.046	15.38294
244.514	43.35734
244.982	27.99601
245.451	36.55487
245.919	32.62744
246.387	17.90655
246.855	45.57102
247.323	43.32896
247.791	-9.19368
248.258	48.47995
248.726	65.16455
249.194	31.39169
249.662	78.31046
250.129	4.50356
250.597	19.81633
251.064	24.45535
251.532	20.20977
251.999	1.13617
252.467	50.51067
252.934	41.85425
253.401	17.34417
253.869	31.30892
254.336	43.01908
254.803	54.09238
255.27	35.78515
255.737	11.109
256.204	36.61646
256.671	28.70878
257.138	32.72248
257.605	36.83686
258.072	24.99422
258.539	6.32819
259.005	48.40647
259.472	45.09054
259.939	14.81279
260.405	-25.26903
260.872	32.85409
261.338	4.34688
261.805	56.05418
262.271	32.16166
262.737	39.78054
263.203	27.62858
263.67	3.66896
264.136	16.05474
264.602	55.28996
265.068	25.57816
265.534	38.13008
266	15.17572
266.466	-15.78673
266.932	50.81364
267.398	35.29028
267.864	1.76952
268.329	32.81871
268.795	-4.16605
269.261	23.29733
269.726	36.62902
270.192	39.32164
270.657	27.99701
271.123	49.05137
271.588	57.6898
272.053	57.03048
272.519	31.81535
272.984	35.10215
273.449	7.14157
273.914	9.87512
274.379	40.27435
274.844	29.99543
275.309	38.23053
275.774	42.96934
276.239	35.10215
276.704	-2.77737
277.169	-19.27334
277.634	51.01556
278.098	48.48159
278.563	32.87352
279.028	27.53351
279.492	67.95673
279.957	-9.99848
280.421	25.85767
280.886	8.6007
281.35	19.04505
281.814	21.49175
282.279	-8.10683
282.743	37.99534
283.207	1.04147
283.671	10.97402
284.135	1.9604
284.599	17.14089
285.063	4.08087
285.527	48.02522
285.991	17.9085
286.455	28.56775
286.919	105.06412
287.382	22.11184
287.846	23.47417
288.31	15.95495
288.773	4.57902
289.237	72.87674
289.7	27.81427
290.164	-17.56454
290.627	62.36127
291.09	48.27156
291.554	-27.86456
292.017	55.33478
292.48	28.16617
292.943	12.27949
293.406	48.59285
293.869	31.8144
294.332	58.97063
294.795	40.20157
295.258	29.75844
295.721	41.99518
296.184	-50.90073
296.646	27.85158
297.109	47.67017
297.572	43.81589
298.034	26.55756
298.497	51.05919
298.959	25.52838
299.422	-5.47862
299.884	47.92791
300.346	21.94844
300.809	10.27842
301.271	15.29194
301.733	31.61893
302.195	-15.2158
302.657	48.99506
303.119	53.00795
303.581	6.32819
304.043	45.62601
304.505	39.07636
304.967	-31.42286
305.429	27.54715
305.891	22.21914
306.352	29.06626
306.814	33.79967
307.275	2.15015
307.737	16.15896
308.198	54.34331
308.66	-2.53124
309.121	46.31112
309.583	68.4178
310.044	34.60956
310.505	45.05049
310.966	38.70677
311.428	95.23734
311.889	46.48562
312.35	12.24282
312.811	8.98732
313.272	-2.08293
313.733	52.99507
314.193	43.44909
314.654	50.35819
315.115	-3.44766
315.576	21.50227
316.036	33.04569
316.497	21.87176
316.957	36.27802
317.418	20.78879
317.878	42.49613
318.339	41.06874
318.799	31.77111
319.259	32.92325
319.72	29.20984
320.18	-4.25449
320.64	-6.99852
321.1	22.21822
321.56	-0.88476
322.02	32.97461
322.48	45.56575
322.94	22.85348
323.4	34.03838
323.86	40.84168
324.319	-40.73768
324.779	55.41763
325.239	50.90365
325.698	14.13904
326.158	67.02899
326.617	36.1408
327.077	14.1484
327.536	39.50234
327.996	23.4659
328.455	14.7042
328.914	19.99763
329.373	5.45398
329.832	60.19943
330.292	50.629
330.751	33.01424
331.21	0
331.668	50.40724
332.127	25.61527
332.586	30.07618
333.045	24.77459
333.504	14.81347
333.962	47.31591
334.421	85.71242
334.88	-42.24509
335.338	51.72127
335.797	-47.81965
336.255	3.7969
336.714	62.8975
337.172	29.99626
337.63	0
338.088	62.38026
338.547	49.99476
339.005	32.62745
339.463	33.32964
339.921	65.45209
340.379	30.33336
340.837	31.99677
341.295	7.86389
341.753	34.37072
342.21	58.97062
342.668	-1.83446
343.126	62.74039
343.584	29.16275
344.041	35.04718
344.499	15.05142
344.956	24.13478
345.414	45.45077
345.871	29.90968
346.328	29.16373
346.786	16.37617
347.243	26.24694
347.7	-29.99383
348.157	34.52006
348.614	27.0227
349.071	-22.49782
349.528	43.17754
349.985	41.29774
350.442	-23.80463
350.899	27.26928
351.356	34.44042
351.812	-2.22182
352.269	30.48437
352.726	36.5337
353.182	30.87948
353.639	35.65307
354.095	12.35764
354.552	30.68882
355.008	40.29532
355.465	16.94587
355.921	-2.597
356.377	24.13479
356.833	5.65926
357.289	85.59034
357.745	-4.67186
358.201	-5.93934
358.657	25.70899
359.113	41.22261
359.569	14.59516
360.025	53.03781
360.481	43.5963
360.937	32.69748
361.392	68.59733
361.848	24.75418
362.303	24.82672
362.759	39.4193
363.214	17.56122
363.67	32.06635
364.125	37.48964
364.581	33.44542
365.036	41.16185
365.491	48.35009
365.946	42.30221
366.401	45.75579
366.856	37.29488
367.311	51.66786
367.766	46.17359
368.221	45.23224
368.676	45.88247
369.131	53.35959
369.586	42.28146
370.041	47.248
370.495	46.58466
370.95	47.66389
371.404	50.35732
371.859	48.42539
372.313	44.151
372.768	52.24368
373.222	52.8619
373.676	51.88803
374.131	50.41687
374.585	48.38961
375.039	51.92289
375.493	54.99262
375.947	50.65582
376.401	56.05079
376.855	49.58848
377.309	49.63172
377.763	49.90873
378.217	53.43198
378.67	51.64216
379.124	52.04178
379.578	53.7077
380.031	52.44211
380.485	53.5539
380.938	53.03435
381.392	54.30423
381.845	53.48823
382.299	53.07076
382.752	52.39392
383.205	53.77321
383.658	51.65109
384.111	52.71793
384.564	51.74064
385.018	51.84014
385.471	52.50015
385.923	53.96774
386.376	54.76579
386.829	52.62202
387.282	53.82544
387.735	53.78331
388.187	54.31575
388.64	53.71605
389.093	53.45782
389.545	52.98033
389.998	52.46558
390.45	53.5099
390.902	53.64039
391.355	53.41847
391.807	53.85709
392.259	53.91551
392.711	53.86027
393.163	53.81995
393.615	54.46255
394.068	53.50898
394.519	54.29761
394.971	53.47317
395.423	53.65974
395.875	54.76455
396.327	54.65582
396.779	53.5791
397.23	53.9477
397.682	53.81331
398.133	54.42445
398.585	53.67897
399.036	53.95332
399.488	53.66063
399.939	54.63714
400.39	54.24743
400.842	52.58196
401.293	54.38762
401.744	53.25742
402.195	52.92965
402.646	53.44764
403.097	53.16961
403.548	52.61693
403.999	53.34442
404.45	52.78666
404.9	52.55251
405.351	52.25282
405.802	52.42938
406.253	53.16156
406.703	52.1899
407.154	51.8156
407.604	53.05146
408.055	51.71571
408.505	52.46038
408.955	52.05643
409.406	51.47912
409.856	51.74061
410.306	51.52939
410.756	51.42491
411.206	50.86193
411.656	51.00883
412.106	49.97674
412.556	50.13483
413.006	50.2745
413.456	49.54393
413.905	49.73022
414.355	49.39671
414.805	49.90028
415.254	49.58769
415.704	50.03432
416.153	49.21668
416.603	49.84023
417.052	49.16292
417.502	48.71127
417.951	49.27331
418.4	48.80479
418.849	48.64385
419.298	48.26697
419.748	48.47355
420.197	48.42236
420.646	48.38089
421.094	48.02812
421.543	48.12704
421.992	47.78023
422.441	47.65521
422.89	47.50322
423.338	47.53704
423.787	47.35624
424.236	46.722
424.684	46.66743
425.133	46.52234
425.581	46.39961
426.029	46.18273
426.478	45.72751
426.926	45.97695
427.374	46.05142
427.822	46.36294
428.27	46.17056
428.718	46.10229
429.166	45.67046
429.614	45.91766
430.062	45.36462
430.51	45.41493
430.958	45.88551
431.406	45.6243
431.853	45.38207
432.301	45.17631
432.749	44.64166
433.196	45.34036
433.644	44.74522
434.091	44.48236
434.538	44.67591
434.986	45.00416
435.433	44.78078
435.88	44.71495
436.327	44.59415
436.775	44.3402
437.222	44.18094
437.669	44.32419
438.116	43.97055
438.563	44.54489
439.009	43.55095
439.456	44.29923
439.903	44.38884
440.35	44.3904
440.796	43.90716
441.243	44.10633
441.689	43.93591
442.136	44.05602
442.582	44.19444
443.029	44.08469
443.475	43.70657
443.921	44.22808
444.368	43.72018
444.814	44.19739
445.26	44.08933
445.706	44.10156
446.152	44.33897
446.598	44.24702
447.044	44.02448
447.49	44.31715
447.936	43.98861
448.381	44.00717
448.827	44.33231
449.273	44.20396
449.718	43.73384
450.164	44.34359
450.61	44.37323
451.055	44.64866
451.5	44.37189
451.946	44.38818
452.391	44.4736
452.836	44.15979
453.282	44.44443
453.727	44.21806
454.172	44.90066
454.617	44.58939
455.062	44.30733
455.507	44.53781
455.952	44.37309
456.396	44.90207
456.841	45.03774
457.286	44.86047
457.731	44.72341
458.175	45.22966
458.62	44.92975
459.064	45.09926
459.509	45.06791
459.953	45.11847
460.398	45.06005
460.842	45.23269
461.286	45.12373
461.73	45.46137
462.174	45.30672
462.619	45.04964
463.063	46.02865
463.507	45.73416
463.951	46.12383
464.394	46.09516
464.838	46.37679
465.282	46.31703
465.726	46.22182
466.17	46.83962
466.613	47.24662
467.057	47.38472
467.5	47.59246
467.944	47.1843
468.387	47.52214
468.831	47.66463
469.274	48.26333
469.717	48.23174
470.16	48.33613
470.603	47.98545
471.047	48.51301
471.49	48.60207
471.933	49.22249
472.376	49.24463
472.818	49.73528
473.261	49.90023
473.704	49.81649
474.147	50.57512
474.59	49.86239
475.032	50.29707
475.475	50.64563
475.917	50.39667
476.36	50.43482
476.802	50.81565
477.245	51.0696
477.687	51.1524
478.129	51.37675
478.571	51.33163
479.013	51.75248
479.456	52.16383
479.898	52.17912
480.34	52.80633
480.782	52.92803
481.224	52.92671
481.665	52.93619
482.107	53.42285
482.549	53.86236
482.991	53.41439
483.432	53.67092
483.874	53.91436
484.315	53.85157
484.757	53.93178
485.198	53.70293
485.64	54.05029
486.081	54.38296
486.522	54.40208
486.963	54.60813
487.405	54.4247
487.846	54.63906
488.287	54.72567
488.728	54.23924
489.169	55.11772
489.61	54.9907
490.05	55.08207
490.491	55.39591
490.932	55.39756
491.373	55.4927
491.813	55.1799
492.254	55.34053
492.694	55.21165
493.135	55.52598
493.575	55.28101
494.016	55.31221
494.456	55.63766
494.896	55.81964
495.336	56.14577
495.777	55.81532
496.217	56.2643
496.657	55.95844
497.097	56.44218
497.537	55.83344
497.977	56.3445
498.416	56.11295
498.856	56.82696
499.296	56.93393
499.736	57.52554
500.175	56.78639
500.615	56.79363
501.054	57.00566
501.494	57.09532
501.933	57.34793
502.373	57.28868
502.812	57.90983
503.251	57.64448
503.69	57.68572
504.129	57.91527
504.569	58.0347
505.008	58.14957
505.447	59.07037
505.886	58.80654
506.324	59.49919
506.763	59.26625
507.202	59.7796
507.641	60.25879
508.079	60.22261
508.518	60.46487
508.957	60.32248
509.395	60.75222
509.834	61.41778
510.272	61.21381
510.71	61.54395
511.149	61.78735
511.587	61.45821
512.025	61.50666
512.463	62.17204
512.901	61.83876
513.339	62.24525
513.777	64.63489
514.215	63.47739
514.653	63.30678
515.091	63.33879
515.529	64.01962
515.966	64.41531
516.404	64.13215
516.842	64.26368
517.279	64.61903
517.717	64.63112
518.154	65.39663
518.592	65.29971
519.029	65.5435
519.466	65.98692
519.904	65.7219
520.341	66.24589
520.778	66.15865
521.215	66.89705
521.652	67.53115
522.089	67.01031
522.526	67.61022
522.963	67.45793
523.399	67.36028
523.836	67.80257
524.273	67.85475
524.71	68.3851
525.146	68.58132
525.583	68.77822
526.019	68.66229
526.456	68.70307
526.892	69.47819
527.328	69.34279
527.765	69.72871
528.201	69.95054
528.637	69.91744
529.073	70.91386
529.509	71.20831
529.945	70.48364
530.381	71.03717
530.817	71.15197
531.253	71.26821
531.689	71.61943
532.124	71.2601
532.56	72.32593
532.996	72.17349
533.431	72.17161
533.867	72.79172
534.302	72.84897
534.738	73.09473
535.173	73.12234
535.608	73.35077
536.044	73.37527
536.479	73.74522
536.914	73.80361
537.349	73.71213
537.784	73.52087
538.219	73.48398
538.654	74.60309
539.089	73.83315
539.524	73.80216
539.959	74.36631
540.393	74.11406
540.828	74.31512
541.263	75.07323
541.697	74.17431
542.132	75.09846
542.566	75.17974
543.001	74.91916
543.435	75.05759
543.869	75.07301
544.303	74.92971
544.738	75.41653
545.172	74.9088
545.606	74.79658
546.04	74.86971
546.474	74.91964
546.908	74.44388
547.342	74.75564
547.775	74.91788
548.209	74.40679
548.643	74.40831
549.077	75.09376
549.51	74.51658
549.944	74.28287
550.377	74.37649
550.811	73.97356
551.244	74.10747
551.677	73.85594
552.111	73.29584
552.544	73.50097
552.977	73.94533
553.41	73.45353
553.843	72.94368
554.276	72.96097
554.709	73.13256
555.142	72.99575
555.575	72.96823
556.008	72.7249
556.44	72.61898
556.873	72.7555
557.306	72.05133
557.738	72.20567
558.171	71.86654
558.603	71.4414
559.036	71.54702
559.468	71.21865
559.9	71.02322
560.333	70.3247
560.765	70.04158
561.197	70.50439
561.629	69.98926
562.061	69.75673
562.493	69.27707
562.925	69.20952
563.357	69.20605
563.789	68.72408
564.22	68.91019
564.652	68.50465
565.084	68.59903
565.515	68.11759
565.947	68.48084
566.378	68.45741
566.81	68.07173
567.241	67.7165
567.672	66.99247
568.104	67.06622
568.535	67.41606
568.966	66.28294
569.397	66.2996
569.828	66.14304
570.259	65.57927
570.69	65.38851
571.121	65.11573
571.552	64.33134
571.983	64.48279
572.414	64.27549
572.844	63.50916
573.275	64.35439
573.705	63.62816
574.136	63.35893
574.566	63.38119
574.997	63.13427
575.427	62.62075
575.857	62.61747
576.288	61.86526
576.718	61.72199
577.148	61.71049
577.578	61.25161
578.008	61.07626
578.438	60.39761
578.868	60.63256
579.298	60.32186
579.728	59.91953
580.157	60.12907
580.587	59.87281
581.017	60.05504
581.446	59.27416
581.876	59.4024
582.305	58.95632
582.735	58.50623
583.164	58.23356
583.593	57.208
584.023	57.5111
584.452	57.43207
584.881	57.29075
585.31	56.74981
585.739	56.72315
586.168	56.66415
586.597	56.46025
587.026	55.83004
587.455	56.20873
587.884	55.76604
588.312	55.60465
588.741	55.01445
589.17	54.88075
589.598	55.03452
590.027	54.86093
590.455	54.61124
590.884	54.31156
591.312	54.05541
591.74	54.38394
592.168	53.95547
592.597	53.72813
593.025	53.19655
593.453	53.28992
593.881	53.1679
594.309	52.80484
594.737	52.47359
595.165	52.13604
595.592	51.90874
596.02	51.76349
596.448	51.77653
596.875	51.21251
597.303	51.1755
597.73	51.23026
598.158	51.01151
598.585	50.51192
599.013	50.52854
599.44	50.63769
599.867	50.62705
600.294	50.0534
600.722	50.20412
601.149	49.70198
601.576	49.93907
602.003	49.63613
602.43	49.19373
602.856	49.11748
603.283	48.95533
603.71	48.79967
604.137	48.73331
604.563	48.59458
604.99	48.52432
605.416	48.39757
605.843	48.18212
606.269	47.98428
606.696	48.08613
607.122	47.68807
607.548	47.13432
607.975	47.4796
608.401	46.98751
608.827	46.77808
609.253	46.7769
609.679	46.88979
610.105	46.46848
610.531	46.60677
610.956	47.01495
611.382	46.59187
611.808	46.63461
612.234	45.93664
612.659	45.7846
613.085	46.26903
613.51	45.69063
613.936	45.51205
614.361	45.69692
614.786	45.70003
615.212	45.59618
615.637	45.42894
616.062	45.91146
616.487	45.63995
616.912	45.74548
617.337	45.71508
617.762	45.51631
618.187	45.37987
618.612	44.95805
619.037	45.08582
619.461	45.18062
619.886	44.87944
620.311	44.98411
620.735	44.44465
621.16	44.74122
621.584	44.40465
622.008	44.29861
622.433	44.26
622.857	44.336
623.281	44.50849
623.705	44.87384
624.13	44.45199
624.554	44.54499
624.978	44.25756
625.402	44.30892
625.826	44.12479
626.249	44.21198
626.673	44.63357
627.097	44.44833
627.521	44.74755
627.944	45.04532
628.368	44.60363
628.791	44.77131
629.215	44.43147
629.638	44.4338
630.061	44.6504
630.485	44.90289
630.908	44.68001
631.331	44.65777
631.754	44.33291
632.177	44.60831
632.6	44.80321
633.023	44.98931
633.446	44.65772
633.869	45.1654
634.292	45.10119
634.715	45.44085
635.137	44.9684
635.56	45.45538
635.982	45.26181
636.405	45.52311
636.827	45.5951
637.25	45.45896
637.672	45.23714
638.094	45.71716
638.517	45.75998
638.939	46.27222
639.361	45.77366
639.783	45.82783
640.205	46.01884
640.627	46.21983
641.049	46.00895
641.471	46.17249
641.893	46.31903
642.314	46.61562
642.736	46.35294
643.158	46.71409
643.579	46.65175
644.001	46.65081
644.422	46.7502
644.844	47.21883
645.265	47.30167
645.686	47.21475
646.107	47.34301
646.529	47.97237
646.95	48.21386
647.371	48.40842
647.792	48.71235
648.213	48.69109
648.634	48.53038
649.055	49.08179
649.475	49.45671
649.896	49.33927
650.317	49.41947
650.737	49.53883
651.158	49.54244
651.578	49.66986
651.999	49.83741
652.419	49.95272
652.84	50.39487
653.26	50.5833
653.68	50.87534
654.1	50.79446
654.521	51.77306
654.941	51.67115
655.361	51.2828
655.781	51.5234
656.2	51.89391
656.62	52.14464
657.04	51.93799
657.46	52.23557
657.879	52.05286
658.299	52.80052
658.719	53.0916
659.138	53.13404
659.558	53.15217
659.977	53.00027
660.396	53.57722
660.816	53.43873
661.235	53.91329
661.654	53.78229
662.073	53.8946
662.492	54.24389
662.911	54.43382
663.33	54.22878
663.749	54.64379
664.168	54.72898
664.587	54.26042
665.006	55.68394
665.424	55.54911
665.843	55.58974
666.261	55.46393
666.68	55.23152
667.098	56.37954
667.517	56.09444
667.935	55.92208
668.353	55.37367
668.772	55.36204
669.19	55.79594
669.608	56.01049
670.026	56.06658
670.444	56.71043
670.862	56.07641
671.28	56.28827
671.698	56.93818
672.115	56.72692
672.533	56.73769
672.951	56.73219
673.368	56.78656
673.786	56.58003
674.203	56.94131
674.621	56.71445
675.038	56.46642
675.456	57.17265
675.873	57.05381
676.29	56.96991
676.707	56.74677
677.124	57.294
677.541	56.77828
677.958	56.45408
678.375	57.44011
678.792	57.39874
679.209	57.32924
679.626	57.22954
680.043	57.26594
680.459	57.06532
680.876	57.3185
681.292	57.65597
681.709	57.13163
682.125	57.40119
682.542	57.17359
682.958	56.73159
683.374	56.6299
683.79	56.90833
684.207	56.56178
684.623	56.38418
685.039	56.60183
685.455	56.73389
685.871	56.3331
686.286	56.16769
686.702	56.06181
687.118	56.2573
687.534	56.40359
687.949	55.78752
688.365	55.99456
688.781	55.86509
689.196	55.67462
689.611	55.23704
690.027	54.86034
690.442	54.46847
690.857	55.38515
691.273	54.40639
691.688	55.39446
692.103	54.82125
692.518	53.76696
692.933	54.35354
693.348	54.03611
693.763	53.75374
694.177	53.5805
694.592	53.34352
695.007	52.52305
695.421	52.29907
695.836	52.79386
696.25	51.70365
696.665	51.49165
697.079	51.86112
697.494	51.63096
697.908	51.34529
698.322	51.14986
698.736	50.48593
699.151	50.4055
699.565	50.80656
699.979	50.80044
700.393	50.82085
700.806	50.35795
701.22	50.17835
701.634	49.67796
702.048	49.75876
702.461	49.60137
702.875	49.3327
703.289	48.95726
703.702	49.42476
704.116	49.37638
704.529	48.92743
704.942	48.01168
705.356	48.78194
705.769	48.0824
706.182	48.25492
706.595	47.89066
707.008	47.67418
707.421	46.95432
707.834	46.48529
708.247	46.58819
708.66	46.08993
709.072	45.77404
709.485	45.34402
709.898	45.61504
710.31	44.88457
710.723	45.20481
711.135	44.36545
711.548	44.53352
711.96	43.85743
712.373	43.79799
712.785	43.25874
713.197	43.13073
713.609	42.72616
714.021	42.25798
714.433	42.12816
714.845	42.13477
715.257	42.05768
715.669	41.60121
716.081	41.01276
716.493	40.71027
716.904	40.40308
717.316	40.47929
717.727	40.30044
718.139	39.8015
718.55	39.37916
718.962	39.58002
719.373	39.08721
719.784	38.90394
720.196	38.50917
720.607	38.35712
721.018	38.19169
721.429	37.86062
721.84	38.10201
722.251	37.19804
722.662	37.37044
723.073	37.03857
723.483	36.66009
723.894	36.56163
724.305	36.28166
724.715	35.76082
725.126	35.4979
725.536	35.20672
725.947	34.92643
726.357	35.26431
726.768	34.61529
727.178	34.44806
727.588	34.2157
727.998	34.07962
728.408	33.32256
728.818	33.42553
729.228	33.3856
729.638	33.3936
730.048	32.89925
730.458	32.96662
730.868	32.53591
731.277	32.58269
731.687	32.39043
732.097	32.32025
732.506	31.72972
732.916	31.83281
733.325	31.61968
733.734	31.80342
734.144	31.24031
734.553	31.39828
734.962	30.32854
735.371	31.13492
735.78	30.1059
736.189	30.51889
736.598	29.60251
737.007	30.57432
737.416	29.75474
737.825	30.24825
738.233	29.37909
738.642	29.70197
739.051	29.16364
739.459	29.4429
739.868	29.28966
740.276	28.8164
740.684	28.87488
741.093	28.64092
741.501	28.52744
741.909	28.6078
742.317	28.57039
742.725	28.26911
743.133	28.22658
743.541	27.56725
743.949	27.96212
744.357	27.66865
744.765	27.89957
745.173	27.19836
745.58	27.47585
745.988	27.2745
746.396	27.43639
746.803	26.71223
747.211	26.96741
747.618	27.19666
748.025	26.64226
748.433	26.74049
748.84	26.21208
749.247	26.48819
749.654	26.38629
750.061	26.60642
750.468	25.59337
750.875	26.34164
751.282	25.35337
751.689	25.77167
752.096	25.99693
752.502	25.72211
752.909	25.51682
753.316	25.30424
753.722	25.66476
754.129	25.28056
754.535	25.66874
754.941	25.08055
755.348	25.84623
755.754	25.04369
756.16	25.00965
756.566	24.39295
756.972	24.63673
757.378	24.63579
757.784	24.66482
758.19	24.66748
758.596	24.29692
759.002	24.92903
759.408	24.08945
759.813	24.75946
760.219	24.54875
760.624	24.57804
761.03	24.34825
761.435	23.85394
761.841	24.05969
762.246	23.72613
762.651	24.10215
763.057	23.84018
763.462	24.72382
763.867	24.28974
764.272	24.50846
764.677	24.70375
765.082	24.31849
765.487	24.37587
765.892	23.99288
766.296	24.52336
766.701	23.62518
767.106	24.20187
767.51	23.34419
767.915	23.96317
768.319	23.81082
768.724	24.00252
769.128	23.75956
769.532	23.2741
769.936	23.71188
770.341	23.18521
770.745	23.71268
771.149	23.33072
771.553	23.71224
771.957	23.35505
772.361	23.23203
772.764	24.10835
773.168	23.25853
773.572	23.72102
773.976	22.83787
774.379	23.30851
774.783	23.26893
775.186	22.95419
775.59	23.44994
775.993	23.11316
776.396	23.19087
776.8	22.90414
777.203	22.79054
777.606	23.09809
778.009	22.85098
778.412	22.91303
778.815	22.73419
779.218	23.49795
779.621	23.06754
780.023	23.0137
780.426	22.89068
780.829	22.44014
781.231	23.13203
781.634	22.76707
782.036	23.13518
782.439	22.93206
782.841	22.58411
783.244	22.97399
783.646	22.76182
784.048	23.08506
784.45	22.88924
784.852	22.98103
785.254	22.56441
785.656	22.51703
786.058	22.9365
786.46	22.34131
786.862	22.71117
787.264	22.13368
787.665	22.49871
788.067	22.63598
788.468	22.32021
788.87	22.6859
789.271	22.41744
789.673	22.74123
790.074	22.97835
790.475	22.23159
790.877	23.03653
791.278	22.51757
791.679	22.98447
792.08	22.48551
792.481	22.56896
792.882	22.67199
793.283	22.10327
793.683	22.44298
794.084	22.45224
794.485	22.22572
794.886	22.88573
795.286	22.12298
795.687	22.94038
796.087	22.1094
796.487	22.34886
796.888	22.79166
797.288	22.35376
797.688	22.83689
798.088	22.45502
798.489	22.72836
798.889	22.55776
799.289	22.44768
799.689	23.29756
800.088	22.63235
800.488	22.32884
800.888	22.88108
801.288	22.32107
801.687	23.09329
802.087	22.83297
802.486	22.84268
802.886	22.92795
803.285	23.05393
803.685	23.00698
804.084	22.73127
804.483	22.59522
804.882	22.82399
805.281	22.40458
805.68	23.20202
806.079	22.92313
806.478	22.90494
806.877	23.01455
807.276	23.33643
807.675	22.8951
808.074	22.79832
808.472	22.82015
808.871	23.37808
809.269	22.62837
809.668	22.83821
810.066	23.61538
810.465	22.39536
810.863	22.87979
811.261	22.64779
811.659	22.85677
812.057	23.29416
812.455	22.96258
812.853	22.56045
813.251	23.04919
813.649	22.38647
814.047	23.03535
814.445	22.56961
814.843	22.60545
815.24	22.99784
815.638	22.50241
816.035	22.72789
816.433	22.88578
816.83	22.90635
817.228	23.15832
817.625	22.39329
818.022	22.81788
818.419	22.89705
818.816	22.90211
819.213	23.22868
819.61	22.82501
820.007	23.04139
820.404	23.29031
820.801	23.07755
821.198	23.69685
821.595	23.44463
821.991	23.33785
822.388	24.36143
822.784	24.00497
823.181	24.51746
823.577	24.9403
823.974	24.42556
824.37	24.92244
824.766	24.63406
825.162	24.2661
825.558	24.38264
825.954	23.86357
826.35	24.0553
826.746	24.90539
827.142	24.16945
827.538	24.62256
827.934	24.76346
828.33	24.35823
828.725	24.60345
829.121	24.30627
829.516	24.00906
829.912	24.45763
830.307	23.90343
830.703	23.80471
831.098	23.44844
831.493	23.39873
831.888	23.9192
832.283	23.54652
832.678	23.1984
833.073	23.92455
833.468	23.70094
833.863	23.66819
834.258	24.35273
834.653	24.0722
835.048	24.23326
835.442	24.45302
835.837	24.2673
836.231	24.2905
836.626	24.0333
837.02	24.33046
837.415	24.08563
837.809	23.41435
838.203	23.67361
838.597	23.86926
838.991	22.55834
839.385	23.70741
839.779	23.85073
840.173	23.90188
840.567	23.93174
840.961	24.44392
841.355	24.10127
841.748	24.68182
842.142	24.36703
842.536	24.27317
842.929	24.90768
843.323	24.67273
843.716	24.48032
844.109	24.93472
844.503	25.04829
844.896	24.05195
845.289	25.5261
845.682	24.79459
846.075	24.07342
846.468	24.67022
846.861	24.65425
847.254	24.85022
847.647	25.44604
848.04	25.26355
848.432	25.07774
848.825	25.34292
849.217	24.11442
849.61	25.79028
850.002	24.54603
850.395	23.93843
850.787	25.40711
851.179	24.22243
851.572	24.26546
851.964	25.62142
852.356	24.1872
852.748	24.57453
853.14	25.50104
853.532	24.84176
853.924	24.96271
854.315	24.36982
854.707	24.53523
855.099	23.89228
855.491	24.54931
855.882	24.43294
856.274	24.76504
856.665	25.142
857.056	24.89757
857.448	24.92819
857.839	25.32467
858.23	24.63124
858.621	24.35946
859.012	25.53578
859.403	24.53978
859.794	24.9324
860.185	25.23981
860.576	24.61556
860.967	25.1614
861.358	24.61233
861.748	24.48989
862.139	24.94664
862.529	24.84033
862.92	24.65629
863.31	24.91039
863.701	25.22422
864.091	24.64387
864.481	25.09411
864.872	25.88904
865.262	24.25122
865.652	25.51215
866.042	25.12091
866.432	24.72399
866.822	24.98174
867.211	25.47727
867.601	24.37381
867.991	25.12813
868.381	24.56907
868.77	24.35277
869.16	25.65864
869.549	24.04916
869.939	24.51569
870.328	24.80338
870.717	25.157
871.106	24.25664
871.496	24.96402
871.885	24.86356
872.274	24.34163
872.663	25.39019
873.052	25.06302
873.441	24.54852
873.829	24.74553
874.218	25.17545
874.607	24.21371
874.996	24.53306
875.384	25.37688
875.773	24.14706
876.161	24.78527
876.549	25.22269
876.938	24.36788
877.326	24.38419
877.714	24.46561
878.102	24.24225
878.491	23.78408
878.879	24.49132
879.267	24.05955
879.655	23.81319
880.042	24.83932
880.43	24.94862
880.818	24.32817
881.206	25.29933
881.593	25.30756
881.981	25.0827
882.368	25.56898
882.756	25.6975
883.143	25.07194
883.53	25.51418
883.918	25.11305
884.305	24.59669
884.692	24.58371
885.079	25.24306
885.466	24.37132
885.853	24.94212
886.24	24.84129
886.627	24.45012
887.014	24.18844
887.4	24.55035
887.787	24.81457
888.174	24.55731
888.56	25.15394
888.947	25.14967
889.333	24.14964
889.719	24.07998
890.106	24.88019
890.492	24.17701
890.878	24.55405
891.264	24.47312
891.65	23.77607
892.036	23.62646
892.422	24.32784
892.808	23.59178
893.194	23.64357
893.58	24.10999
893.965	24.41265
894.351	23.65371
894.736	24.24194
895.122	24.46842
895.507	23.69666
895.893	24.41753
896.278	23.82282
896.663	23.96173
897.049	24.64022
897.434	23.9891
897.819	23.5149
898.204	23.95792
898.589	23.84613
898.974	24.09674
899.359	23.64246
899.743	23.91062
900.128	24.16897
900.513	22.90825
900.897	23.43724
901.282	24.11053
901.667	23.49738
902.051	23.39941
902.435	23.37584
902.82	23.30025
903.204	23.09662
903.588	23.98765
903.972	24.11931
904.356	23.32597
904.74	24.12955
905.124	24.02107
905.508	23.61559
905.892	24.12152
906.276	23.96139
906.659	23.87421
907.043	24.18218
907.427	23.46567
907.81	24.95608
908.194	23.35414
908.577	23.65386
908.96	24.65179
909.344	24.18897
909.727	24.313
910.11	24.18432
910.493	24.30271
910.876	24.17787
911.259	24.00135
911.642	24.18042
912.025	23.73828
912.408	22.98685
912.79	23.6254
913.173	23.32859
913.556	23.41377
913.938	23.82196
914.321	24.27174
914.703	23.39227
915.086	23.72346
915.468	24.1622
915.85	23.638
916.232	23.65531
916.614	24.13229
916.996	24.4701
917.378	23.48427
917.76	23.34599
918.142	23.71684
918.524	23.68278
918.906	24.01574
919.288	23.65643
919.669	24.07774
920.051	24.01639
920.432	24.06361
920.814	23.99198
921.195	23.40761
921.577	22.98498
921.958	23.65824
922.339	23.32799
922.72	23.38954
923.101	23.90694
923.482	23.53456
923.863	24.14815
924.244	23.54273
924.625	24.74139
925.006	23.96048
925.387	22.92041
925.767	23.82968
926.148	22.76681
926.528	23.19178
926.909	23.62008
927.289	23.81468
927.67	23.76955
928.05	23.32487
928.43	22.84977
928.81	23.33236
929.191	23.70873
929.571	23.10944
929.951	23.52439
930.331	23.22536
930.71	24.34485
931.09	23.98614
931.47	23.58097
931.85	24.18616
932.229	22.47506
932.609	23.15791
932.988	24.0075
933.368	23.0046
933.747	22.46628
934.127	23.68839
934.506	22.63751
934.885	21.51884
935.264	23.49183
935.643	22.30745
936.022	23.10902
936.401	22.6229
936.78	22.66114
937.159	24.07811
937.538	21.88574
937.916	21.59126
938.295	23.57906
938.674	22.60907
939.052	24.58263
939.431	24.77534
939.809	22.07889
940.187	24.36307
940.566	23.8311
940.944	23.44286
941.322	23.31451
941.7	21.18798
942.078	22.03424
942.456	24.7192
942.834	23.74556
943.212	21.63228
943.59	22.30074
943.968	23.11424
944.345	22.72498
944.723	21.8738
945.1	23.07211
945.478	21.10734
945.855	21.12267
946.233	22.48461
946.61	21.82302
946.987	21.02781
947.365	21.42383
947.742	20.50718
948.119	22.4669
948.496	21.99723
948.873	20.95795
949.25	21.71096
949.626	22.01679
950.003	20.20493
950.38	20.49747
950.756	20.32761
951.133	20.25561
951.51	18.6783
951.886	20.25847
952.262	22.10716
952.639	21.13802
953.015	19.72596
953.391	19.25491
953.767	21.27651
954.143	20.60479
954.519	21.57633
954.895	20.68329
955.271	21.93442
955.647	19.67237
956.023	20.43796
956.399	20.61032
956.774	21.27019
957.15	18.44563
957.525	20.12927
957.901	18.83136
958.276	19.92838
958.652	21.05972
959.027	20.5128
959.402	21.01694
959.777	19.52696
960.152	20.69873
960.527	19.90843
960.902	19.86825
961.277	21.7995
961.652	17.94661
962.027	22.47608
962.402	20.89718
962.776	22.15827
963.151	19.02642
963.525	20.81248
963.9	22.13302
964.274	23.36195
964.649	20.85745
965.023	18.58826
965.397	20.27959
965.771	19.60448
966.146	21.16922
966.52	20.87214
966.894	20.71651
967.268	22.41244
967.641	20.60953
968.015	19.66853
968.389	19.65178
968.763	19.10575
969.136	18.17646
969.51	20.5199
969.883	18.6567
970.257	19.37266
970.63	20.14712
971.003	18.95462
971.377	21.06976
971.75	19.75751
972.123	20.19177
972.496	20.91047
972.869	18.9609
973.242	20.90521
973.615	21.00601
973.988	20.92322
974.36	18.63249
974.733	21.60023
975.106	19.33976
975.478	20.78011
975.851	18.66157
976.223	18.46712
976.596	18.88747
976.968	19.59275
977.34	19.76085
977.712	19.84276
978.085	18.09248
978.457	18.96775
978.829	19.29161
979.201	19.62735
979.573	20.05522
979.944	19.817
980.316	19.0022
980.688	19.80955
981.059	20.71657
981.431	18.88862
981.803	20.20076
982.174	21.79588
982.545	18.99936
982.917	21.86257
983.288	18.68021
983.659	18.69712
984.03	18.95379
984.401	21.62989
984.772	19.79284
985.143	19.3037
985.514	19.50505
985.885	21.29274
986.256	20.37333
986.627	20.30403
986.997	17.56567
987.368	16.74609
987.738	18.09533
988.109	18.90288
988.479	18.49152
988.85	17.41378
989.22	18.09253
989.59	19.7723
989.96	18.2926
990.33	18.35571
990.7	19.25566
991.07	18.75036
991.44	17.63902
991.81	18.23998
992.18	19.37543
992.549	19.90694
992.919	20.36237
993.289	17.69413
993.658	18.09538
994.028	19.30878
994.397	19.62237
994.766	17.40907
995.136	20.45135
995.505	18.1987
995.874	20.76931
996.243	15.44857
996.612	20.26945
996.981	19.07482
997.35	18.87504
997.719	17.47189
998.088	20.55664
998.456	19.87572
998.825	22.38943
999.194	16.55523
999.562	19.10445
999.931	20.43376
1000.299	18.4587
1000.667	18.99805
1001.036	20.25001
1001.404	20.76172
1001.772	20.11917
1002.14	20.7231
1002.508	21.06931
1002.876	19.23953
1003.244	21.21584
1003.612	16.05312
1003.98	20.4113
1004.347	21.16789
1004.715	15.3876
1005.083	18.59918
1005.45	17.03167
1005.818	18.86709
1006.185	16.48061
1006.552	16.85504
1006.92	20.78073
1007.287	21.81426
1007.654	17.5233
1008.021	16.53989
1008.388	21.65211
1008.755	20.00488
1009.122	18.71265
1009.489	19.31289
1009.856	19.88783
1010.222	14.79138
1010.589	17.8922
1010.956	16.57148
1011.322	17.80532
1011.689	17.1445
1012.055	18.74716
1012.421	15.17835
1012.788	16.90009
1013.154	19.92805
1013.52	18.89236
1013.886	19.0644
1014.252	19.27836
1014.618	17.21577
1014.984	16.00584
1015.35	19.53034
1015.716	22.72645
1016.081	21.89453
1016.447	18.47414
1016.813	17.25242
1017.178	20.10988
1017.544	18.66925
1017.909	21.33536
1018.274	20.54902
1018.64	20.43217
1019.005	19.10573
1019.37	14.65429
1019.735	23.65054
1020.1	15.45315
1020.465	18.46262
1020.83	15.97509
1021.195	16.64742
1021.56	21.25837
1021.924	16.10638
1022.289	12.41091
1022.654	12.06438
1023.018	14.08585
1023.383	15.4314
1023.747	18.53895
1024.111	11.10049
1024.476	26.17139
1024.84	14.27227
1025.204	16.94224
1025.568	8.84005
1025.932	17.44242
1026.296	15.13265
1026.66	10.78502
1027.024	22.64457
1027.387	1.08363
1027.751	20.11529
1028.115	22.6637
1028.478	20.65957
1028.842	13.51769
1029.205	17.02285
1029.569	21.33562
1029.932	24.69296
1030.295	14.78677
1030.659	7.03006
1031.022	9.73028
1031.385	27.72203
1031.748	21.86806
1032.111	13.35419
1032.474	13.53283
1032.836	18.49746
1033.199	3.66227
1033.562	16.52115
1033.924	13.74779
1034.287	25.49554
1034.65	13.9018
1035.012	10.20834
1035.374	37.21582
1035.737	8.08742
1036.099	19.00966
1036.461	26.4324
1036.823	13.24865
1037.185	30.42136
1037.547	4.94769
1037.909	22.41895
1038.271	12.08729
1038.633	10.95329
1038.995	20.92707
1039.356	24.02349
1039.718	5.49531
1040.08	9.57932
1040.441	20.55831
1040.803	5.94091
1041.164	14.17523
1041.525	19.42589
1041.886	0.49732
1042.248	14.65509
1042.609	11.95079
1042.97	15.00969
1043.331	11.28974
1043.692	26.28423
1044.053	13.32683
1044.413	2.4182
1044.774	34.31643
1045.135	2.57395
1045.495	8.79605
1045.856	18.13323
1046.216	3.38031
1046.577	30.62131
1046.937	15.11192
1047.298	6.10088
