Data from 1017water_Reflection__28__21-03-11-559.txt Node

Date: Fri Oct 17 21:03:11 AST 2025
User: lin
Spectrometer: SR600411
Trigger mode: 0
Integration Time (sec): 5.846600E-2
Scans to average: 5
Nonlinearity correction enabled: true
Boxcar width: 0
Storing dark spectrum: false
XAxis mode: Wavelengths
Number of Pixels in Spectrum: 2048
>>>>>Begin Spectral Data<<<<<
187.982	47.62054
188.456	52.8778
188.93	42.42872
189.403	59.98625
189.877	37.95997
190.351	41.90997
190.825	55.28165
191.298	36.13323
191.772	52.81036
192.246	48.31505
192.719	53.83593
193.193	40.16379
193.666	52.48816
194.139	43.33632
194.613	56.35416
195.086	58.51409
195.559	49.41128
196.033	58.93582
196.506	46.15425
196.979	46.339
197.452	63.81051
197.925	57.84862
198.398	47.20275
198.871	68.40808
199.344	47.39666
199.816	59.62789
200.289	53.12631
200.762	50.16137
201.235	46.70931
201.707	54.23489
202.18	28.16956
202.652	48.24732
203.125	37.02956
203.597	22.72269
204.07	49.15318
204.542	46.73007
205.014	36.70546
205.486	38.94541
205.959	66.8565
206.431	20.12074
206.903	38.20923
207.375	16.90799
207.847	0.7351
208.319	24.3028
208.791	-5.50334
209.263	25.94922
209.734	64.74193
210.206	18.17858
210.678	44.58736
211.15	23.80501
211.621	21.22805
212.093	41.31652
212.564	54.95543
213.036	35.39312
213.507	32.42602
213.979	13.63431
214.45	28.07636
214.921	6.99871
215.392	6.5559
215.864	10.25428
216.335	53.3289
216.806	38.23053
217.277	34.85749
217.748	43.41366
218.219	14.28317
218.69	47.92065
219.161	80.30097
219.631	7.69085
220.102	47.28046
220.573	42.96255
221.043	-21.79078
221.514	33.05909
221.985	-11.10869
222.455	17.30475
222.926	48.17638
223.396	48.43118
223.866	10.52454
224.337	47.8204
224.807	17.64462
225.277	-15.49045
225.747	15.3816
226.217	34.18665
226.687	-16.3009
227.157	27.99303
227.627	24.35613
228.097	46.61775
228.567	65.48167
229.037	25.94922
229.507	41.59925
229.977	12.086
230.446	1.36967
230.916	30.8471
231.386	32.62745
231.855	10.71164
232.325	47.05296
232.794	11.86197
233.263	39.3877
233.733	49.51862
234.202	18.24413
234.671	20.8658
235.14	24.10837
235.61	44.99412
236.079	48.93152
236.548	59.99478
237.017	21.6179
237.486	17.5406
237.955	3.09221
238.424	-1.1234
238.892	11.64839
239.361	25.18015
239.83	-6.09651
240.299	41.81289
240.767	-3.1742
241.236	58.02079
241.704	37.75055
242.173	7.69121
242.641	12.74285
243.109	61.18773
243.578	30.46339
244.046	1.53827
244.514	15.92621
244.982	15.99734
245.451	4.30032
245.919	29.46978
246.387	42.53083
246.855	51.69342
247.323	53.3289
247.791	-19.53621
248.258	63.63183
248.726	64.04089
249.194	46.5074
249.662	48.18867
250.129	14.41171
250.597	26.12189
251.064	37.40363
251.532	-25.52596
251.999	22.72422
252.467	73.19212
252.934	39.52878
253.401	4.08088
253.869	35.34906
254.336	29.06626
254.803	21.30744
255.27	1.05244
255.737	30.55102
256.204	4.22478
256.671	63.3617
257.138	29.99543
257.605	35.08258
258.072	15.3806
258.539	-1.26562
259.005	26.18566
259.472	48.35845
259.939	14.81279
260.405	6.5923
260.872	51.42511
261.338	11.30207
261.805	40.14524
262.271	10.48685
262.737	27.95328
263.203	3.9468
263.67	23.84929
264.136	20.43355
264.602	52.93699
265.068	1.1626
265.534	38.9775
266	39.28043
266.466	5.26241
266.932	42.61705
267.398	16.46827
267.864	-3.539
268.329	45.79509
268.795	-20.82975
269.261	25.23887
269.726	61.3814
270.192	5.61704
270.657	15.998
271.123	30.18426
271.588	59.61291
272.053	38.51218
272.519	13.63482
272.984	21.27348
273.449	19.38472
273.914	53.08243
274.379	15.27593
274.844	65.44962
275.309	27.44696
275.774	42.14292
276.239	24.46465
276.704	49.99644
277.169	-19.27334
277.634	82.65028
278.098	-18.17901
278.563	45.2019
279.028	44.92416
279.492	60.18929
279.957	-7.1418
280.421	60.33934
280.886	27.95328
281.35	67.85352
281.814	15.88502
282.279	-41.8832
282.743	23.99639
283.207	37.49555
283.671	12.19338
284.135	37.25018
284.599	0
285.063	38.77091
285.527	54.32447
285.991	56.71316
286.455	19.77736
286.919	62.02164
287.382	16.34334
287.846	38.2555
288.31	15.95495
288.773	29.76557
289.237	65.24894
289.7	42.8507
290.164	-21.61777
290.627	64.51192
291.09	43.67392
291.554	-55.72724
292.017	80.57934
292.48	-5.63297
292.943	68.41862
293.406	35.50917
293.869	43.17755
294.332	-16.66367
294.795	37.10893
295.258	7.14176
295.721	52.99507
296.184	-19.99739
296.646	29.99418
297.109	65.11241
297.572	25.83932
298.034	31.24456
298.497	44.67626
298.959	46.80388
299.422	-27.39222
299.884	40.4901
300.346	75.60677
300.809	-12.14665
301.271	56.46645
301.733	19.65446
302.195	45.64992
302.657	54.99511
303.119	48.18867
303.581	12.6565
304.043	55.33476
304.505	-4.59687
304.967	34.2826
305.429	53.05639
305.891	6.66556
306.352	84.88154
306.814	15.49112
307.275	4.30032
307.737	25.24883
308.198	19.56235
308.66	44.29994
309.121	36.83773
309.583	44.73312
310.044	26.91802
310.505	48.34715
310.966	8.06361
311.428	72.61574
311.889	26.31141
312.35	14.28334
312.811	13.48109
313.272	12.49793
313.733	28.99593
314.193	36.14215
314.654	50.35819
315.115	-22.98364
315.576	40.85577
316.036	44.06205
316.497	3.12443
316.957	49.55194
317.418	68.3125
317.878	-1.2498
318.339	64.28317
318.799	24.29517
319.259	6.09663
319.72	49.4338
320.18	1.06363
320.64	46.99508
321.1	12.81793
321.56	24.77459
322.02	48.93152
322.48	34.1737
322.94	-5.71303
323.4	44.67625
323.86	-30.98021
324.319	29.62852
324.779	32.52652
325.239	15.4517
325.698	37.36915
326.158	52.74276
326.617	54.2128
327.077	9.43217
327.536	67.89774
327.996	-28.5643
328.455	45.5849
328.914	21.33084
329.373	-14.54364
329.832	59.17899
330.292	32.90794
330.751	39.61763
331.21	-35.58759
331.668	16.52562
332.127	28.9207
332.586	23.57285
333.045	24.77459
333.504	-1.85165
333.962	57.13743
334.421	66.23036
334.88	-28.16395
335.338	1.72394
335.797	-67.38103
336.255	15.18786
336.714	74.9954
337.172	15.55322
337.63	28.23189
338.088	37.60962
338.547	29.24095
339.005	41.04808
339.463	65.47244
339.921	-23.63319
340.379	70.78287
340.837	57.3297
341.295	16.85147
341.753	40.62042
342.21	48.71409
342.668	-0.91723
343.126	12.74286
343.584	1.04147
344.041	3.09221
344.499	4.30032
344.956	-36.77295
345.414	41.55475
345.871	15.3816
346.328	27.77492
346.786	46.54602
347.243	42.49613
347.7	2.49961
348.157	66.66298
348.614	16.21323
349.071	-44.99484
349.528	44.31388
349.985	30.42901
350.442	-11.90255
350.899	52.26839
351.356	54.44003
351.812	59.99573
352.269	42.67896
352.726	29.8034
353.182	-2.94077
353.639	50.38123
354.095	51.68099
354.552	27.71877
355.008	0
355.465	5.08362
355.921	54.54168
356.377	25.28411
356.833	16.03491
357.289	69.48657
357.745	11.21285
358.201	6.92941
358.657	63.56501
359.113	21.92597
359.569	47.4385
360.025	50.4291
360.481	41.8522
360.937	34.58408
361.392	51.15429
361.848	16.66091
362.303	29.52407
362.759	33.32254
363.214	26.56802
363.67	46.21601
364.125	43.73912
364.581	33.44542
365.036	37.56754
365.491	42.16859
365.946	41.43274
366.401	46.92192
366.856	47.99015
367.311	50.26335
367.766	51.50345
368.221	48.39409
368.676	45.02047
369.131	51.61868
369.586	43.92957
370.041	55.50837
370.495	52.05219
370.95	45.13812
371.404	54.30498
371.859	57.5065
372.313	43.4747
372.768	51.49815
373.222	51.81117
373.676	49.99092
374.131	49.9862
374.585	51.48732
375.039	50.27237
375.493	53.89264
375.947	49.92636
376.401	55.40913
376.855	50.48939
377.309	51.60477
377.763	50.70833
378.217	55.1558
378.67	51.49501
379.124	53.67916
379.578	52.22614
380.031	52.528
380.485	50.77215
380.938	53.67828
381.392	52.9436
381.845	55.38064
382.299	52.23338
382.752	51.6039
383.205	54.54999
383.658	50.35898
384.111	54.08893
384.564	51.99835
385.018	51.99337
385.471	53.54532
385.923	55.14418
386.376	53.4734
386.829	52.56946
387.282	52.81581
387.735	53.63914
388.187	54.24015
388.64	53.43078
389.093	53.00767
389.545	53.50613
389.998	54.59766
390.45	54.0527
390.902	53.81918
391.355	53.94927
391.807	53.12462
392.259	54.25727
392.711	53.23903
393.163	53.57164
393.615	54.71162
394.068	54.21759
394.519	54.03766
394.971	54.08781
395.423	53.98261
395.875	54.87879
396.327	53.85066
396.779	53.78608
397.23	54.16261
397.682	53.58428
398.133	54.21542
398.585	53.56166
399.036	54.09376
399.488	54.06278
399.939	53.9152
400.39	53.33755
400.842	52.25263
401.293	53.42793
401.744	53.02362
402.195	53.63526
402.646	53.55016
403.097	52.7196
403.548	53.11482
403.999	53.37029
404.45	52.71521
404.9	52.6783
405.351	52.44111
405.802	52.48862
406.253	52.72933
406.703	52.2527
407.154	51.89145
407.604	53.01836
408.055	51.90012
408.505	52.55175
408.955	51.64157
409.406	51.53204
409.856	51.53355
410.306	51.03944
410.756	51.3193
411.206	51.14618
411.656	50.71912
412.106	50.33228
412.556	50.49424
413.006	50.69128
413.456	50.30748
413.905	49.80403
414.355	49.77027
414.805	49.96466
415.254	49.52445
415.704	49.84251
416.153	49.89198
416.603	49.71874
417.052	48.93419
417.502	48.50612
417.951	48.90533
418.4	48.77182
418.849	48.52565
419.298	48.53808
419.748	48.34275
420.197	48.00622
420.646	48.74598
421.094	48.19745
421.543	48.00635
421.992	47.5799
422.441	47.64233
422.89	47.40387
423.338	47.26899
423.787	47.00795
424.236	46.54564
424.684	46.65798
425.133	46.57564
425.581	46.83957
426.029	45.97173
426.478	45.54726
426.926	46.17611
427.374	45.43675
427.822	46.04871
428.27	45.74974
428.718	46.17029
429.166	45.8062
429.614	45.94229
430.062	45.62717
430.51	45.91811
430.958	45.36176
431.406	45.43474
431.853	45.39701
432.301	45.10561
432.749	44.81684
433.196	44.92727
433.644	45.39525
434.091	44.93816
434.538	44.83829
434.986	44.85643
435.433	44.67106
435.88	44.68276
436.327	44.49218
436.775	44.70302
437.222	44.03557
437.669	44.5715
438.116	44.21681
438.563	44.59145
439.009	43.5845
439.456	44.40349
439.903	44.3701
440.35	44.10976
440.796	43.86257
441.243	44.02517
441.689	44.15558
442.136	44.44302
442.582	44.09644
443.029	44.36506
443.475	44.16761
443.921	44.512
444.368	44.26546
444.814	43.8517
445.26	43.88187
445.706	44.25764
446.152	44.20205
446.598	44.00859
447.044	44.26234
447.49	44.58602
447.936	44.16277
448.381	43.81985
448.827	44.34029
449.273	44.68208
449.718	44.38535
450.164	44.05298
450.61	44.21337
451.055	44.81562
451.5	44.84693
451.946	44.61827
452.391	44.43145
452.836	44.03378
453.282	44.42787
453.727	44.42841
454.172	44.4405
454.617	44.71403
455.062	44.35106
455.507	44.82623
455.952	44.023
456.396	44.84829
456.841	44.57355
457.286	44.99147
457.731	44.93352
458.175	45.05972
458.62	45.0246
459.064	44.96448
459.509	45.07153
459.953	45.32222
460.398	45.46254
460.842	45.02058
461.286	45.38048
461.73	45.4194
462.174	45.51492
462.619	45.17027
463.063	45.4243
463.507	45.7766
463.951	46.1847
464.394	46.55324
464.838	46.29832
465.282	46.60077
465.726	46.81036
466.17	46.54459
466.613	46.88401
467.057	47.28676
467.5	47.56033
467.944	47.65253
468.387	47.37317
468.831	47.74546
469.274	48.08865
469.717	48.52513
470.16	47.95347
470.603	48.09837
471.047	48.51717
471.49	48.60967
471.933	49.12682
472.376	49.08239
472.818	49.70469
473.261	49.58545
473.704	49.81357
474.147	50.18879
474.59	50.10429
475.032	50.41046
475.475	50.7233
475.917	50.74895
476.36	50.84133
476.802	50.77641
477.245	51.1087
477.687	50.99348
478.129	51.28602
478.571	51.63247
479.013	51.72174
479.456	51.8805
479.898	52.14932
480.34	52.81179
480.782	52.23501
481.224	52.84552
481.665	53.19195
482.107	53.56932
482.549	53.89947
482.991	53.59368
483.432	53.47173
483.874	53.92642
484.315	54.00237
484.757	53.89919
485.198	54.05411
485.64	54.29609
486.081	54.80135
486.522	54.48044
486.963	54.62748
487.405	54.38767
487.846	54.56324
488.287	54.84859
488.728	54.77932
489.169	54.99801
489.61	54.6762
490.05	54.77359
490.491	54.99915
490.932	55.29003
491.373	55.66085
491.813	55.36712
492.254	55.16717
492.694	55.49335
493.135	55.3088
493.575	55.15606
494.016	55.73165
494.456	55.72745
494.896	55.79054
495.336	55.75554
495.777	55.92126
496.217	56.24499
496.657	55.95142
497.097	56.61084
497.537	56.24504
497.977	56.41981
498.416	56.21522
498.856	56.53725
499.296	57.1045
499.736	57.20657
500.175	56.59928
500.615	57.13698
501.054	56.94786
501.494	57.09352
501.933	57.11387
502.373	57.56887
502.812	57.91164
503.251	57.57625
503.69	57.90361
504.129	58.34407
504.569	58.33929
505.008	58.48213
505.447	58.77204
505.886	59.08119
506.324	59.24625
506.763	59.26805
507.202	60.10721
507.641	59.97366
508.079	60.23156
508.518	60.81437
508.957	60.75288
509.395	60.83061
509.834	61.47964
510.272	61.45787
510.71	61.74498
511.149	61.86091
511.587	62.11855
512.025	61.38721
512.463	62.02556
512.901	62.08856
513.339	62.19845
513.777	64.23347
514.215	63.21607
514.653	63.11977
515.091	63.50203
515.529	64.3004
515.966	63.66543
516.404	64.1803
516.842	64.20922
517.279	64.54395
517.717	64.85194
518.154	64.79191
518.592	65.10865
519.029	66.14915
519.466	65.90735
519.904	66.14623
520.341	66.21046
520.778	66.35872
521.215	66.78842
521.652	67.76101
522.089	67.21628
522.526	67.31284
522.963	66.99203
523.399	67.44957
523.836	67.92397
524.273	67.95778
524.71	68.6156
525.146	68.75547
525.583	68.81625
526.019	68.69716
526.456	68.87347
526.892	69.29672
527.328	69.22592
527.765	69.32619
528.201	70.23558
528.637	70.29682
529.073	70.79394
529.509	70.59036
529.945	70.70998
530.381	71.00612
530.817	70.92504
531.253	70.9478
531.689	71.55632
532.124	71.29155
532.56	72.19341
532.996	72.36008
533.431	72.23333
533.867	73.18324
534.302	72.85056
534.738	72.46673
535.173	73.06779
535.608	73.36851
536.044	73.38833
536.479	73.66164
536.914	73.53277
537.349	73.676
537.784	73.68284
538.219	73.99057
538.654	74.1421
539.089	74.25264
539.524	74.03403
539.959	74.66071
540.393	74.60833
540.828	74.7283
541.263	74.79304
541.697	74.27051
542.132	75.60758
542.566	75.54956
543.001	74.77431
543.435	75.2467
543.869	75.14682
544.303	74.60326
544.738	75.05855
545.172	75.36329
545.606	75.16279
546.04	75.33535
546.474	74.65324
546.908	74.69704
547.342	75.00682
547.775	74.71788
548.209	75.23485
548.643	74.44321
549.077	74.66289
549.51	74.21005
549.944	74.20819
550.377	74.36606
550.811	74.00116
551.244	74.03851
551.677	73.88532
552.111	73.43501
552.544	73.85259
552.977	73.65134
553.41	72.7765
553.843	73.49349
554.276	72.98179
554.709	73.12907
555.142	73.12863
555.575	73.05794
556.008	72.87618
556.44	72.73862
556.873	72.30903
557.306	72.46373
557.738	72.17392
558.171	71.59264
558.603	71.89512
559.036	71.91075
559.468	71.34956
559.9	70.68393
560.333	70.12501
560.765	70.47634
561.197	70.48201
561.629	70.1283
562.061	70.02841
562.493	69.69535
562.925	68.93382
563.357	69.01072
563.789	69.25486
564.22	68.80579
564.652	69.08037
565.084	68.5022
565.515	68.19909
565.947	68.26994
566.378	68.4075
566.81	68.03004
567.241	67.6115
567.672	67.27039
568.104	67.26148
568.535	67.31366
568.966	66.24869
569.397	65.90613
569.828	66.24273
570.259	65.46582
570.69	65.65834
571.121	64.70888
571.552	64.62313
571.983	64.81499
572.414	64.13113
572.844	63.63494
573.275	64.17987
573.705	63.82976
574.136	63.69865
574.566	63.34071
574.997	62.81436
575.427	62.43993
575.857	62.46333
576.288	62.06826
576.718	61.78011
577.148	61.48028
577.578	61.59764
578.008	60.76843
578.438	60.76242
578.868	60.26403
579.298	60.52466
579.728	59.9471
580.157	59.88278
580.587	60.01368
581.017	59.49172
581.446	59.39454
581.876	59.14433
582.305	58.99279
582.735	58.44968
583.164	58.00699
583.593	57.36447
584.023	57.74088
584.452	57.21772
584.881	57.36383
585.31	57.37975
585.739	56.97557
586.168	56.62493
586.597	56.48911
587.026	56.20253
587.455	55.84695
587.884	55.64217
588.312	55.21731
588.741	55.25636
589.17	55.14616
589.598	54.93411
590.027	54.89888
590.455	54.64134
590.884	54.60628
591.312	54.27418
591.74	54.34066
592.168	54.11258
592.597	53.78089
593.025	53.38294
593.453	53.27664
593.881	52.97079
594.309	52.74237
594.737	52.62218
595.165	52.15063
595.592	52.03991
596.02	51.49761
596.448	51.93153
596.875	51.60201
597.303	51.10047
597.73	51.0637
598.158	51.28282
598.585	50.82641
599.013	50.77855
599.44	50.36902
599.867	50.71366
600.294	50.40262
600.722	50.3792
601.149	49.49505
601.576	49.99317
602.003	49.56296
602.43	49.43884
602.856	49.23824
603.283	49.05257
603.71	49.0148
604.137	48.59641
604.563	48.64781
604.99	48.81021
605.416	48.58928
605.843	48.04951
606.269	47.84455
606.696	47.51001
607.122	47.61009
607.548	47.16287
607.975	47.07823
608.401	47.27436
608.827	46.91683
609.253	47.18087
609.679	47.12074
610.105	46.55909
610.531	46.55704
610.956	46.60017
611.382	46.67078
611.808	46.82372
612.234	46.00743
612.659	45.86271
613.085	46.23525
613.51	45.95956
613.936	45.84771
614.361	46.09475
614.786	45.95939
615.212	45.54746
615.637	45.34953
616.062	45.62307
616.487	45.53829
616.912	45.72733
617.337	45.59583
617.762	45.60169
618.187	45.20167
618.612	45.01115
619.037	44.90999
619.461	45.05785
619.886	44.8687
620.311	44.77485
620.735	44.96968
621.16	44.74254
621.584	44.73951
622.008	44.46037
622.433	44.50081
622.857	44.47168
623.281	44.61293
623.705	44.92983
624.13	44.79325
624.554	44.61904
624.978	44.38899
625.402	44.40449
625.826	44.57582
626.249	44.53677
626.673	44.59707
627.097	44.37462
627.521	44.89018
627.944	44.69186
628.368	44.37764
628.791	44.76982
629.215	44.39716
629.638	44.44286
630.061	44.60752
630.485	44.56652
630.908	44.51314
631.331	44.62798
631.754	44.48445
632.177	44.86903
632.6	44.59816
633.023	44.80443
633.446	44.48507
633.869	45.17884
634.292	45.17243
634.715	45.51489
635.137	45.21178
635.56	45.34554
635.982	45.34892
636.405	45.31389
636.827	45.41676
637.25	45.66871
637.672	45.53858
638.094	45.66984
638.517	45.71973
638.939	45.90317
639.361	46.13177
639.783	45.9321
640.205	45.9361
640.627	46.16306
641.049	45.8819
641.471	45.9029
641.893	46.18749
642.314	46.72583
642.736	46.59153
643.158	46.73725
643.579	46.92382
644.001	46.54667
644.422	46.781
644.844	46.95761
645.265	47.0657
645.686	47.88854
646.107	47.38363
646.529	48.13356
646.95	48.20413
647.371	48.38505
647.792	48.2511
648.213	48.60345
648.634	48.53429
649.055	49.13539
649.475	48.97985
649.896	49.28092
650.317	50.22965
650.737	49.19805
651.158	49.49348
651.578	50.06739
651.999	50.29098
652.419	50.07483
652.84	50.25994
653.26	50.54146
653.68	50.53951
654.1	50.93561
654.521	51.77942
654.941	51.30936
655.361	51.67122
655.781	51.40453
656.2	51.83061
656.62	51.80201
657.04	52.13333
657.46	51.94322
657.879	52.26657
658.299	52.73812
658.719	52.80528
659.138	52.59137
659.558	53.46554
659.977	53.36384
660.396	53.74191
660.816	53.48185
661.235	53.78991
661.654	54.07503
662.073	54.06673
662.492	54.23097
662.911	54.95516
663.33	54.52255
663.749	54.79225
664.168	54.98613
664.587	55.16782
665.006	55.12863
665.424	55.54068
665.843	55.34481
666.261	55.30681
666.68	55.39401
667.098	55.96658
667.517	56.54099
667.935	55.893
668.353	55.55045
668.772	55.87236
669.19	55.46529
669.608	55.53957
670.026	56.59409
670.444	56.92664
670.862	56.40364
671.28	56.38634
671.698	56.94019
672.115	57.00253
672.533	56.94862
672.951	56.80689
673.368	56.92019
673.786	57.17451
674.203	56.69773
674.621	56.84734
675.038	56.68737
675.456	57.18649
675.873	56.94915
676.29	57.32471
676.707	56.82092
677.124	57.30569
677.541	56.9845
677.958	56.99417
678.375	57.57567
678.792	57.36198
679.209	57.23784
679.626	56.98615
680.043	57.26594
680.459	57.50361
680.876	57.19871
681.292	57.49644
681.709	56.87666
682.125	57.08665
682.542	57.00349
682.958	56.82755
683.374	56.796
683.79	56.64719
684.207	56.81505
684.623	56.39484
685.039	56.65516
685.455	56.84641
685.871	56.40367
686.286	56.72637
686.702	56.14251
687.118	56.70144
687.534	56.35103
687.949	56.38392
688.365	56.01552
688.781	56.14873
689.196	55.46081
689.611	55.13343
690.027	55.16473
690.442	54.9963
690.857	55.14165
691.273	54.42778
691.688	55.21682
692.103	54.82847
692.518	54.30128
692.933	54.69161
693.348	53.69241
693.763	53.46006
694.177	53.45675
694.592	53.2308
695.007	52.60975
695.421	52.43289
695.836	52.46343
696.25	52.27463
696.665	51.69851
697.079	52.08681
697.494	51.83961
697.908	51.13552
698.322	51.3761
698.736	50.91557
699.151	50.73164
699.565	50.92442
699.979	51.09994
700.393	50.18764
700.806	49.92149
701.22	49.95485
701.634	49.62183
702.048	49.64382
702.461	49.1384
702.875	49.53367
703.289	49.13899
703.702	49.26077
704.116	49.19085
704.529	49.41886
704.942	48.20489
705.356	48.69729
705.769	47.92372
706.182	48.39038
706.595	47.69124
707.008	47.6447
707.421	47.51973
707.834	46.62065
708.247	46.53982
708.66	46.19299
709.072	46.28274
709.485	45.48711
709.898	45.44657
710.31	44.86387
710.723	45.12925
711.135	44.4374
711.548	44.50621
711.96	43.80253
712.373	43.96929
712.785	43.3204
713.197	43.17842
713.609	42.77765
714.021	42.44101
714.433	41.86147
714.845	42.00135
715.257	41.77421
715.669	41.59056
716.081	40.9878
716.493	41.01942
716.904	40.6217
717.316	40.34329
717.727	40.21487
718.139	39.73046
718.55	39.4125
718.962	39.94128
719.373	39.30339
719.784	39.22148
720.196	38.74142
720.607	38.65999
721.018	38.23549
721.429	37.92463
721.84	37.5857
722.251	37.60187
722.662	37.63552
723.073	36.84655
723.483	36.52582
723.894	36.57549
724.305	36.21898
724.715	35.71083
725.126	35.55825
725.536	35.27732
725.947	35.10008
726.357	34.82394
726.768	34.76454
727.178	34.71127
727.588	34.07977
727.998	33.77223
728.408	33.61945
728.818	33.52601
729.228	33.44908
729.638	33.53793
730.048	33.23855
730.458	33.07207
730.868	32.45484
731.277	32.78703
731.687	32.41783
732.097	32.38434
732.506	31.86992
732.916	31.92785
733.325	31.67702
733.734	31.94088
734.144	30.99392
734.553	31.2195
734.962	30.73538
735.371	30.63586
735.78	30.31448
736.189	30.48785
736.598	29.75327
737.007	30.37307
737.416	29.71251
737.825	29.90344
738.233	29.56055
738.642	29.79672
739.051	29.37278
739.459	29.53688
739.868	29.45492
740.276	28.9469
740.684	28.63843
741.093	28.4743
741.501	28.49676
741.909	28.43103
742.317	28.18993
742.725	28.12536
743.133	27.98519
743.541	27.70353
743.949	28.04113
744.357	27.36969
744.765	27.86719
745.173	27.29568
745.58	27.56408
745.988	26.97817
746.396	27.37859
746.803	27.11382
747.211	27.07531
747.618	26.70831
748.025	26.55404
748.433	26.99738
748.84	26.31083
749.247	26.54721
749.654	26.52803
750.061	26.35966
750.468	25.83188
750.875	25.93613
751.282	25.76195
751.689	26.12057
752.096	25.60276
752.502	25.80418
752.909	25.72797
753.316	25.61975
753.722	25.77317
754.129	25.28056
754.535	25.57716
754.941	25.05198
755.348	25.5476
755.754	24.92478
756.16	25.05216
756.566	24.59202
756.972	24.85458
757.378	24.63976
757.784	24.65886
758.19	24.80726
758.596	24.17711
759.002	24.57895
759.408	24.09525
759.813	24.58776
760.219	24.15901
760.624	24.60982
761.03	24.1962
761.435	24.2677
761.841	23.87637
762.246	23.78902
762.651	24.07869
763.057	23.67167
763.462	24.70087
763.867	24.45159
764.272	24.50975
764.677	24.55273
765.082	24.54608
765.487	24.35188
765.892	24.37201
766.296	24.47989
766.701	23.74159
767.106	24.29404
767.51	23.79553
767.915	23.89891
768.319	23.77997
768.724	23.91382
769.128	23.8402
769.532	23.59112
769.936	24.0343
770.341	23.26677
770.745	23.3874
771.149	23.31372
771.553	23.70981
771.957	23.61686
772.361	23.27415
772.764	23.96088
773.168	23.11413
773.572	23.63947
773.976	22.88927
774.379	23.31628
774.783	22.88496
775.186	23.11789
775.59	23.45791
775.993	22.91962
776.396	23.73223
776.8	22.97079
777.203	22.74995
777.606	22.91775
778.009	23.09475
778.412	23.23151
778.815	22.61228
779.218	23.10612
779.621	22.943
780.023	23.17393
780.426	22.67609
780.829	22.92849
781.231	23.20631
781.634	22.6812
782.036	23.37678
782.439	22.61907
782.841	22.53736
783.244	23.30283
783.646	22.64527
784.048	23.16786
784.45	22.49303
784.852	22.76789
785.254	22.83165
785.656	22.58709
786.058	22.92849
786.46	22.25759
786.862	22.68331
787.264	22.33509
787.665	22.39646
788.067	22.59185
788.468	22.39218
788.87	22.91248
789.271	22.57409
789.673	23.3434
790.074	23.09155
790.475	22.61394
790.877	22.98335
791.278	22.24636
791.679	22.82543
792.08	22.36481
792.481	22.44153
792.882	22.57863
793.283	22.23037
793.683	22.69559
794.084	22.45779
794.485	22.50351
794.886	22.73304
795.286	22.1609
795.687	22.73354
796.087	22.04588
796.487	22.21029
796.888	22.78634
797.288	22.17798
797.688	23.16775
798.088	22.51208
798.489	22.52059
798.889	22.90294
799.289	22.40266
799.689	22.90456
800.088	22.51955
800.488	22.75193
800.888	22.82162
801.288	22.42374
801.687	22.71282
802.087	22.34278
802.486	22.82684
802.886	22.94683
803.285	23.11789
803.685	22.8948
804.084	22.90412
804.483	22.3663
804.882	23.03121
805.281	22.29205
805.68	23.31521
806.079	22.55533
806.478	22.85957
806.877	22.86008
807.276	22.78188
807.675	23.19275
808.074	22.80474
808.472	23.32638
808.871	23.34899
809.269	22.43558
809.668	22.72366
810.066	23.51344
810.465	22.30017
810.863	23.10066
811.261	22.67302
811.659	23.30506
812.057	23.36269
812.455	23.21479
812.853	22.97702
813.251	23.0674
813.649	22.5322
814.047	23.16573
814.445	22.44789
814.843	22.97784
815.24	22.59348
815.638	22.43742
816.035	23.02111
816.433	22.69228
816.83	22.84496
817.228	23.03559
817.625	22.48804
818.022	23.17133
818.419	23.15292
818.816	22.78535
819.213	23.15081
819.61	22.75655
820.007	22.92653
820.404	23.34145
820.801	23.15078
821.198	23.78609
821.595	23.50137
821.991	23.45513
822.388	24.34197
822.784	24.14709
823.181	24.53013
823.577	24.88917
823.974	24.54022
824.37	24.95429
824.766	24.71251
825.162	24.30288
825.558	24.38264
825.954	23.70168
826.35	23.99982
826.746	24.58871
827.142	24.24862
827.538	24.70582
827.934	24.61407
828.33	24.28699
828.725	24.72719
829.121	24.24935
829.516	24.12691
829.912	24.25861
830.307	23.70821
830.703	23.66786
831.098	23.71584
831.493	23.30437
831.888	23.74217
832.283	23.34709
832.678	23.18392
833.073	24.03027
833.468	23.81461
833.863	23.8307
834.258	24.38308
834.653	24.08281
835.048	24.09476
835.442	24.58625
835.837	24.52157
836.231	24.51668
836.626	24.30869
837.02	24.46449
837.415	24.00011
837.809	23.82686
838.203	23.69778
838.597	23.58292
838.991	23.19134
839.385	23.16654
839.779	23.89367
840.173	23.67073
840.567	24.20015
840.961	24.43528
841.355	23.92199
841.748	24.55443
842.142	24.48374
842.536	24.51538
842.929	24.73193
843.323	24.26199
843.716	24.55419
844.109	24.71228
844.503	24.50816
844.896	24.40087
845.289	25.27161
845.682	24.45244
846.075	23.93318
846.468	24.76959
846.861	24.34325
847.254	24.3304
847.647	24.27719
848.04	24.62235
848.432	24.86329
848.825	24.30856
849.217	24.66656
849.61	25.38612
850.002	24.55319
850.395	24.70162
850.787	26.46345
851.179	24.06134
851.572	25.14516
851.964	25.35599
852.356	24.32958
852.748	24.62732
853.14	24.94509
853.532	24.90242
853.924	24.7627
854.315	24.56874
854.707	24.83444
855.099	24.29868
855.491	24.99808
855.882	24.38748
856.274	25.32261
856.665	25.05865
857.056	24.83672
857.448	23.99453
857.839	25.55997
858.23	25.40021
858.621	24.58015
859.012	24.8508
859.403	24.43428
859.794	24.78919
860.185	24.91409
860.576	24.84351
860.967	25.70489
861.358	24.26898
861.748	24.50469
862.139	24.30935
862.529	24.5864
862.92	24.36087
863.31	25.58669
863.701	24.84532
864.091	24.82949
864.481	25.24443
864.872	25.05237
865.262	25.03203
865.652	25.43323
866.042	24.33452
866.432	24.14447
866.822	25.30396
867.211	25.72483
867.601	24.93763
867.991	24.91209
868.381	25.03579
868.77	24.67535
869.16	25.07458
869.549	24.63479
869.939	24.04521
870.328	25.33139
870.717	25.57423
871.106	24.55368
871.496	24.49962
871.885	24.97065
872.274	24.24699
872.663	24.78157
873.052	25.85
873.441	24.78178
873.829	24.57072
874.218	24.93043
874.607	23.95431
874.996	25.12132
875.384	25.1501
875.773	24.31733
876.161	24.16532
876.549	24.65144
876.938	24.34408
877.326	24.744
877.714	24.7948
878.102	24.33706
878.491	24.02627
878.879	24.55126
879.267	24.0503
879.655	24.23139
880.042	24.74006
880.43	25.06334
880.818	24.68836
881.206	25.12733
881.593	25.49292
881.981	25.01437
882.368	25.59224
882.756	25.69098
883.143	25.34744
883.53	25.51418
883.918	25.33179
884.305	24.79851
884.692	24.9273
885.079	25.2621
885.466	24.53535
885.853	24.89743
886.24	25.1252
886.627	24.75011
887.014	24.11397
887.4	24.95031
887.787	24.99012
888.174	24.33655
888.56	25.12398
888.947	25.22159
889.333	24.41145
889.719	24.42565
890.106	24.5954
890.492	24.29822
890.878	23.7973
891.264	24.54101
891.65	24.07138
892.036	24.00934
892.422	24.44729
892.808	24.14343
893.194	23.44035
893.58	24.61068
893.965	24.28251
894.351	23.76098
894.736	24.2174
895.122	24.64506
895.507	23.68514
895.893	24.30081
896.278	24.39014
896.663	24.19247
897.049	24.27669
897.434	24.39384
897.819	23.74066
898.204	24.20842
898.589	24.43972
898.974	24.42346
899.359	23.97167
899.743	23.70736
900.128	24.64524
900.513	23.37656
900.897	23.77973
901.282	23.54959
901.667	23.63466
902.051	23.24574
902.435	23.69381
902.82	23.29029
903.204	23.23817
903.588	23.81701
903.972	23.97233
904.356	23.74821
904.74	23.80047
905.124	24.36788
905.508	23.80307
905.892	24.28103
906.276	24.15359
906.659	24.18372
907.043	23.83484
907.427	23.68668
907.81	24.40912
908.194	24.19122
908.577	23.89673
908.96	23.75609
909.344	24.50268
909.727	24.69874
910.11	24.99847
910.493	24.71737
910.876	23.9368
911.259	24.10851
911.642	24.19632
912.025	24.0737
912.408	23.74717
912.79	23.74504
913.173	23.06198
913.556	23.54138
913.938	23.82441
914.321	24.12679
914.703	23.48068
915.086	23.59617
915.468	24.14992
915.85	23.78726
916.232	23.9005
916.614	24.16936
916.996	24.52971
917.378	23.6472
917.76	23.9775
918.142	23.72034
918.524	23.64433
918.906	23.99087
919.288	24.2332
919.669	24.66231
920.051	24.45079
920.432	24.16219
920.814	24.24719
921.195	23.62409
921.577	23.19469
921.958	24.00674
922.339	23.98265
922.72	23.23952
923.101	23.78083
923.482	23.91923
923.863	23.39791
924.244	23.57522
924.625	22.93593
925.006	23.72297
925.387	23.29549
925.767	24.03137
926.148	22.72195
926.528	23.73956
926.909	22.86752
927.289	23.58585
927.67	22.92027
928.05	23.2978
928.43	22.56217
928.81	23.58253
929.191	23.53265
929.571	23.02129
929.951	23.20137
930.331	23.76617
930.71	23.85419
931.09	24.35593
931.47	24.29633
931.85	23.41783
932.229	22.26519
932.609	22.81207
932.988	23.94936
933.368	22.98485
933.747	23.62542
934.127	23.42542
934.506	23.10788
934.885	21.86596
935.264	23.81627
935.643	22.61377
936.022	23.86387
936.401	22.94527
936.78	23.23539
937.159	23.58087
937.538	22.32959
937.916	22.36643
938.295	23.48696
938.674	23.45611
939.052	23.57418
939.431	24.2298
939.809	23.74928
940.187	23.91487
940.566	23.67336
940.944	22.05478
941.322	23.14407
941.7	22.56892
942.078	21.70258
942.456	23.55428
942.834	22.63361
943.212	21.44086
943.59	22.54506
943.968	22.9886
944.345	22.17546
944.723	22.13797
945.1	22.28391
945.478	22.13751
945.855	21.75155
946.233	21.94048
946.61	21.68064
946.987	20.68146
947.365	22.25248
947.742	21.42911
948.119	22.44986
948.496	22.22798
948.873	21.55502
949.25	21.86072
949.626	21.75788
950.003	21.71729
950.38	21.79209
950.756	22.96428
951.133	20.62936
951.51	20.60095
951.886	20.47237
952.262	22.0884
952.639	21.49421
953.015	20.15904
953.391	20.26177
953.767	19.7767
954.143	19.24377
954.519	19.3014
954.895	20.11892
955.271	21.46189
955.647	19.27685
956.023	20.15368
956.399	21.74541
956.774	20.95343
957.15	16.99284
957.525	21.11192
957.901	19.61822
958.276	18.98106
958.652	20.46737
959.027	21.30049
959.402	20.27423
959.777	19.36619
960.152	20.92755
960.527	20.20493
960.902	19.64073
961.277	21.30194
961.652	19.83615
962.027	17.94266
962.402	18.92863
962.776	20.95465
963.151	19.19234
963.525	19.087
963.9	20.78595
964.274	21.61483
964.649	20.13191
965.023	19.67934
965.397	23.31491
965.771	20.27936
966.146	20.95875
966.52	20.00613
966.894	21.10378
967.268	20.74372
967.641	18.92155
968.015	19.29081
968.389	20.35657
968.763	19.23991
969.136	18.58548
969.51	19.29002
969.883	21.36931
970.257	20.42211
970.63	19.72727
971.003	18.27416
971.377	20.94999
971.75	20.43323
972.123	22.29402
972.496	20.67327
972.869	19.46734
973.242	20.58516
973.615	20.42829
973.988	19.90182
974.36	18.75596
974.733	20.3804
975.106	18.66835
975.478	20.67146
975.851	20.31532
976.223	18.84818
976.596	17.36114
976.968	20.19294
977.34	19.18847
977.712	19.88032
978.085	18.45078
978.457	20.13576
978.829	20.51236
979.201	19.79353
979.573	19.04611
979.944	19.09237
980.316	18.92763
980.688	19.0206
981.059	20.67269
981.431	19.32325
981.803	21.22524
982.174	20.58778
982.545	19.9342
982.917	22.03659
983.288	18.70354
983.659	19.81581
984.03	17.52978
984.401	20.60337
984.772	21.21835
985.143	19.16622
985.514	21.52171
985.885	19.28608
986.256	20.53028
986.627	18.88187
986.997	17.6885
987.368	19.40458
987.738	20.51978
988.109	19.93292
988.479	17.25137
988.85	18.67607
989.22	19.18239
989.59	19.66484
989.96	18.07782
990.33	17.9586
990.7	19.00854
991.07	19.408
991.44	18.83079
991.81	18.38104
992.18	18.96046
992.549	20.81677
992.919	20.61599
993.289	18.53711
993.658	19.60255
994.028	20.02738
994.397	18.30683
994.766	18.69492
995.136	19.27948
995.505	18.72489
995.874	22.31316
996.243	17.03989
996.612	16.82871
996.981	17.07657
997.35	18.5315
997.719	20.07235
998.088	19.65708
998.456	20.03207
998.825	18.18773
999.194	19.25156
999.562	18.02478
999.931	20.75765
1000.299	16.47262
1000.667	19.56789
1001.036	20.50083
1001.404	18.83991
1001.772	18.60266
1002.14	19.95504
1002.508	20.26721
1002.876	20.6313
1003.244	22.71594
1003.612	18.48116
1003.98	22.47822
1004.347	17.87602
1004.715	17.31989
1005.083	20.48627
1005.45	17.6896
1005.818	21.05305
1006.185	18.71075
1006.552	17.40122
1006.92	16.51425
1007.287	21.1257
1007.654	17.06365
1008.021	18.06164
1008.388	21.52041
1008.755	16.9407
1009.122	18.64809
1009.489	18.49991
1009.856	20.33718
1010.222	12.604
1010.589	19.51408
1010.956	21.52046
1011.322	16.73782
1011.689	20.72697
1012.055	15.36717
1012.421	20.49384
1012.788	13.21884
1013.154	17.10004
1013.52	18.05401
1013.886	19.28792
1014.252	19.5225
1014.618	20.14061
1014.984	15.75435
1015.35	20.44496
1015.716	21.9144
1016.081	20.09172
1016.447	18.57244
1016.813	22.62449
1017.178	21.51816
1017.544	20.13817
1017.909	19.54749
1018.274	20.54902
1018.64	17.56162
1019.005	20.27826
1019.37	11.70012
1019.735	21.53585
1020.1	16.9861
1020.465	16.47954
1020.83	16.91503
1021.195	11.14446
1021.56	21.25837
1021.924	14.03728
1022.289	11.36405
1022.654	15.44305
1023.018	15.54328
1023.383	16.08127
1023.747	17.15972
1024.111	15.28661
1024.476	26.99466
1024.84	11.95272
1025.204	16.94224
1025.568	9.04565
1025.932	18.0113
1026.296	8.34178
1026.66	17.90844
1027.024	15.37232
1027.387	12.78816
1027.751	14.70723
1028.115	23.48802
1028.478	11.45557
1028.842	21.94362
1029.205	5.96846
1029.569	18.06943
1029.932	11.18044
1030.295	12.16304
1030.659	-1.00423
1031.022	12.36033
1031.385	23.99394
1031.748	21.86806
1032.111	18.19009
1032.474	17.17675
1032.836	19.01136
1033.199	8.37119
1033.562	11.37479
1033.924	15.59867
1034.287	18.61075
1034.65	7.86859
1035.012	10.74566
1035.374	26.44909
1035.737	5.19895
1036.099	21.02612
1036.461	12.66428
1036.823	6.048
1037.185	22.03879
1037.547	5.93726
1037.909	17.74781
1038.271	18.86882
1038.633	17.79981
1038.995	12.80546
1039.356	26.98989
1039.718	8.93005
1040.08	8.30201
1040.441	8.15187
1040.803	12.23171
1041.164	5.08829
1041.525	3.88484
1041.886	1.98928
1042.248	8.2667
1042.609	23.54092
1042.97	10.23359
1043.331	11.62181
1043.692	9.04795
1044.053	34.02246
1044.413	-6.44826
1044.774	36.18181
1045.135	-3.00287
1045.495	14.39394
1045.856	6.97399
1046.216	-19.79707
1046.577	29.72057
1046.937	5.81209
1047.298	7.0395
