Data from 1017water_Reflection__26__21-02-55-288.txt Node

Date: Fri Oct 17 21:02:55 AST 2025
User: lin
Spectrometer: SR600411
Trigger mode: 0
Integration Time (sec): 5.846600E-2
Scans to average: 5
Nonlinearity correction enabled: true
Boxcar width: 0
Storing dark spectrum: false
XAxis mode: Wavelengths
Number of Pixels in Spectrum: 2048
>>>>>Begin Spectral Data<<<<<
187.982	49.3097
188.456	70.65745
188.93	41.46419
189.403	49.29602
189.877	48.08568
190.351	50.60521
190.825	51.35995
191.298	41.35354
191.772	37.08533
192.246	40.65989
192.719	44.22062
193.193	34.05096
193.666	59.5719
194.139	52.34902
194.613	55.08018
195.086	56.50723
195.559	47.98274
196.033	55.62969
196.506	46.91951
196.979	61.14574
197.452	54.11638
197.925	61.04907
198.398	43.92015
198.871	68.07906
199.344	47.39666
199.816	61.11178
200.289	58.98439
200.762	47.35439
201.235	54.08638
201.707	45.27264
202.18	38.66555
202.652	44.17766
203.125	69.74633
203.597	29.54003
204.07	45.80128
204.542	30.97048
205.014	52.6468
205.486	48.24733
205.959	68.04007
206.431	8.17374
206.903	45.21524
207.375	18.37832
207.847	34.55274
208.319	30.93157
208.791	22.01465
209.263	25.94922
209.734	43.87812
210.206	28.17742
210.678	41.20912
211.15	6.34773
211.621	-13.00946
212.093	33.05256
212.564	61.06255
213.036	36.27802
213.507	35.12846
213.979	54.54114
214.45	33.5552
214.921	-9.99782
215.392	36.06001
215.864	13.67248
216.335	41.1068
216.806	44.11268
217.277	5.50347
217.748	30.25681
218.219	36.18568
218.69	56.79653
219.161	6.05986
219.631	64.41837
220.102	12.40033
220.573	22.65182
221.043	-14.10008
221.514	6.45013
221.985	17.16893
222.455	24.03471
222.926	19.99652
223.396	26.55756
223.866	12.6295
224.337	19.99636
224.807	49.40756
225.277	-18.30682
225.747	48.71216
226.217	22.57528
226.687	11.95461
227.157	37.13478
227.627	23.07419
228.097	29.44116
228.567	53.97674
229.037	25.18596
229.507	34.30046
229.977	18.67859
230.446	16.43637
230.916	25.52838
231.386	46.31112
231.855	28.56578
232.325	31.92765
232.794	37.28268
233.263	18.17793
233.733	54.28056
234.202	20.43355
234.671	46.95085
235.14	34.74545
235.61	39.9943
236.079	1.06363
236.548	24.54143
237.017	30.62597
237.486	14.90942
237.955	16.4922
238.424	-3.37017
238.892	40.77178
239.361	41.475
239.83	6.09663
240.299	20.90549
240.767	34.9178
241.236	14.81279
241.704	42.8524
242.173	82.04901
242.641	-5.8811
243.109	70.1437
243.578	30.46339
244.046	18.4596
244.514	29.19892
244.982	41.99518
245.451	31.17885
245.919	15.78697
246.387	40.29212
246.855	47.61179
247.323	33.32938
247.791	-11.49205
248.258	23.22883
248.726	52.80461
249.194	27.90355
249.662	40.95988
250.129	-9.90752
250.597	32.42762
251.064	40.28116
251.532	-11.6997
251.999	-11.36143
252.467	55.66537
252.934	39.52878
253.401	4.08088
253.869	41.40939
254.336	20.92742
254.803	32.78158
255.27	-2.10486
255.737	1.85146
256.204	43.65852
256.671	73.26341
257.138	21.81447
257.605	26.31142
258.072	26.27608
258.539	17.71924
259.005	24.59855
259.472	41.16914
259.939	16.04722
260.405	35.16073
260.872	61.42529
261.338	18.25747
261.805	43.17541
262.271	4.89379
262.737	-10.7505
263.203	56.57526
263.67	11.92434
264.136	4.37843
264.602	77.64414
265.068	4.65041
265.534	35.58787
266	21.42484
266.466	-1.31559
266.932	43.43669
267.398	27.0555
267.864	9.73255
268.329	57.24557
268.795	-6.94339
269.261	43.68431
269.726	48.50986
270.192	20.22188
270.657	33.33003
271.123	22.63784
271.588	-26.91956
272.053	38.51218
272.519	9.08983
272.984	30.8471
273.449	2.04043
273.914	13.57837
274.379	26.38612
274.844	8.18018
275.309	22.54549
275.774	27.26798
276.239	45.74007
276.704	29.16372
277.169	-30.11405
277.634	68.36315
278.098	18.17988
278.563	56.16083
279.028	76.80916
279.492	42.71346
279.957	2.85676
280.421	34.47758
280.886	29.02847
281.35	55.94828
281.814	14.01614
282.279	-2.7023
282.743	36.99539
283.207	28.12116
283.671	-9.75436
284.135	38.23053
284.599	-1.42837
285.063	-6.12119
285.527	29.91599
285.991	32.8329
286.455	29.66657
286.919	73.41467
287.382	22.11184
287.846	10.43266
288.31	42.54865
288.773	32.81871
289.237	42.36718
289.7	47.36186
290.164	-45.93613
290.627	50.53303
291.09	25.2841
291.554	-68.83844
292.017	67.95673
292.48	-7.04119
292.943	29.8222
293.406	36.4437
293.869	29.54183
294.332	2.56372
294.795	55.66537
295.258	4.76115
295.721	27.99601
296.184	29.08866
296.646	37.13639
297.109	44.18185
297.572	71.90655
298.034	42.18132
298.497	14.89126
298.959	32.97461
299.422	-36.97898
299.884	33.87894
300.346	0
300.809	-4.67186
301.271	47.05463
301.733	31.61893
302.195	-39.12548
302.657	36.99539
303.119	75.90061
303.581	26.57923
304.043	44.65515
304.505	37.92698
304.967	29.99709
305.429	70.40412
305.891	-9.99804
306.352	48.83296
306.814	14.08281
307.275	-6.45035
307.737	19.18888
308.198	43.47379
308.66	-36.70102
309.121	63.15352
309.583	30.25998
310.044	28.4563
310.505	40.65499
310.966	-27.41507
311.428	63.09137
311.889	24.55722
312.35	63.26081
312.811	6.74047
313.272	37.49556
313.733	15.99734
314.193	65.75783
314.654	41.59926
315.115	32.18015
315.576	31.17885
316.036	38.9775
316.497	3.12443
316.957	12.38695
317.418	17.81885
317.878	23.74713
318.339	-7.14201
318.799	33.64014
319.259	13.41275
319.72	59.54632
320.18	2.12727
320.64	20.99672
321.1	28.20044
321.56	8.84775
322.02	12.76389
322.48	31.64219
322.94	5.71317
323.4	23.40092
323.86	16.89944
324.319	33.33215
324.779	33.73127
325.239	26.35941
325.698	34.33902
326.158	67.02899
326.617	68.67117
327.077	11.31865
327.536	40.73687
327.996	5.1011
328.455	67.64412
328.914	21.33084
329.373	-32.72254
329.832	48.97474
330.292	22.78206
330.751	23.58113
331.21	-44.06039
331.668	42.14293
332.127	19.8309
332.586	49.58741
333.045	46.01214
333.504	-11.10979
333.962	37.49481
334.421	74.02304
334.88	-25.34765
335.338	-18.96293
335.797	-28.25757
336.255	7.59384
336.714	58.86503
337.172	6.66556
337.63	31.76106
338.088	38.52701
338.547	49.99476
339.005	5.26222
339.463	44.04353
339.921	12.72607
340.379	32.5804
340.837	25.33053
341.295	-4.49356
341.753	15.6225
342.21	61.53481
342.668	6.42072
343.126	39.21088
343.584	37.49555
344.041	-10.3071
344.499	24.72776
344.956	8.0447
345.414	42.85342
345.871	32.47356
346.328	40.27435
346.786	27.58162
347.243	-3.74938
347.7	-14.99727
348.157	16.66436
348.614	30.62596
349.071	-52.49366
349.528	55.67752
349.985	41.29774
350.442	-20.23405
350.899	48.85929
351.356	18.88616
351.812	8.88745
352.269	35.36215
352.726	31.72632
353.182	14.7042
353.639	25.57654
354.095	1.1234
354.552	32.66888
355.008	19.40091
355.465	27.11404
355.921	19.47813
356.377	9.19397
356.833	24.52442
357.289	59.3164
357.745	23.3607
358.201	40.58925
358.657	39.99335
359.113	21.04889
359.569	40.13948
360.025	58.25534
360.481	42.43357
360.937	18.86311
361.392	38.9454
361.848	25.23028
362.303	23.48464
362.759	43.07752
363.214	27.9191
363.67	40.08429
364.125	36.59688
364.581	28.61368
365.036	47.69736
365.491	40.71418
365.946	39.40402
366.401	41.38299
366.856	36.05136
367.311	48.01619
367.766	53.28017
368.221	59.2645
368.676	47.391
369.131	46.20294
369.586	45.944
370.041	47.59948
370.495	54.78626
370.95	47.96105
371.404	55.75257
371.859	53.96808
372.313	46.63088
372.768	49.58117
373.222	52.67085
373.676	50.89428
374.131	48.17748
374.585	53.31439
375.039	51.39771
375.493	54.33262
375.947	51.58427
376.401	59.06696
376.855	51.81083
377.309	50.98464
377.763	49.05587
378.217	54.11103
378.67	53.40811
379.124	53.24572
379.578	51.05899
380.031	53.12929
380.485	53.47441
380.938	53.60252
381.392	52.22756
381.845	54.11899
382.299	54.16594
382.752	52.02929
383.205	53.11158
383.658	50.46445
384.111	53.12412
384.564	52.34979
385.018	52.1904
385.471	53.52441
385.923	54.22694
386.376	54.80325
386.829	51.57099
387.282	53.30377
387.735	53.73525
388.187	53.86218
388.64	53.31668
389.093	53.26684
389.545	53.22398
389.998	52.68482
390.45	54.14711
390.902	54.07621
391.355	53.31232
391.807	53.17548
392.259	53.68118
392.711	53.35956
393.163	53.97959
393.615	54.02459
394.068	53.65728
394.519	53.64386
394.971	53.78426
395.423	53.68175
395.875	54.62175
396.327	54.14653
396.779	53.46561
397.23	52.95161
397.682	54.44328
398.133	54.14575
398.585	53.35792
399.036	54.77167
399.488	53.79267
399.939	53.67856
400.39	54.04583
400.842	52.00282
401.293	53.06327
401.744	53.45785
402.195	53.28515
402.646	52.90277
403.097	53.22786
403.548	53.03095
403.999	53.00306
404.45	53.07251
404.9	53.14633
405.351	52.77811
405.802	52.37013
406.253	52.68022
406.703	53.08374
407.154	51.71606
407.604	52.11565
408.055	52.08915
408.505	52.09952
408.955	51.59251
409.406	51.79664
409.856	52.59999
410.306	50.60979
410.756	51.2137
411.206	50.83685
411.656	50.60739
412.106	50.48351
412.556	50.23174
413.006	50.75942
413.456	50.02799
413.905	49.79238
414.355	49.5911
414.805	50.18433
415.254	49.80349
415.704	49.92365
416.153	49.44174
416.603	49.2186
417.052	48.81292
417.502	48.94336
417.951	48.78601
418.4	49.3985
418.849	48.96238
419.298	48.21145
419.748	48.40815
420.197	48.22902
420.646	48.26579
421.094	48.08022
421.543	48.07485
421.992	47.71884
422.441	47.52322
422.89	47.17957
423.338	47.10308
423.787	46.86549
424.236	46.7787
424.684	46.86918
425.133	46.375
425.581	46.49008
426.029	45.99966
426.478	45.96064
426.926	46.12321
427.374	46.1669
427.822	45.9274
428.27	45.83946
428.718	46.09919
429.166	45.84322
429.614	45.80993
430.062	45.32799
430.51	45.57043
430.958	45.6009
431.406	45.4558
431.853	45.30138
432.301	45.05553
432.749	45.07382
433.196	45.14543
433.644	44.79143
434.091	44.70169
434.538	44.55628
434.986	44.62233
435.433	44.31457
435.88	44.63448
436.327	44.46342
436.775	44.69015
437.222	44.25865
437.669	44.40412
438.116	43.98533
438.563	44.52283
439.009	44.44505
439.456	44.09311
439.903	44.30918
440.35	43.98658
440.796	44.1324
441.243	44.14362
441.689	44.15558
442.136	44.51321
442.582	44.51352
443.029	44.1321
443.475	43.56367
443.921	44.534
444.368	44.03511
444.814	43.95325
445.26	44.23477
445.706	44.02642
446.152	44.07466
446.598	44.47225
447.044	44.0919
447.49	43.95576
447.936	44.09006
448.381	44.18822
448.827	44.28443
449.273	44.27891
449.718	43.8835
450.164	44.17873
450.61	44.42652
451.055	44.2944
451.5	44.37365
451.946	44.37188
452.391	44.2702
452.836	44.13057
453.282	44.52169
453.727	44.21806
454.172	44.41484
454.617	44.7122
455.062	44.34559
455.507	44.68836
455.952	44.43415
456.396	44.71744
456.841	44.90739
457.286	44.93584
457.731	44.80672
458.175	45.19494
458.62	44.65987
459.064	44.93717
459.509	45.18736
459.953	45.08987
460.398	44.93003
460.842	44.92994
461.286	45.068
461.73	45.13747
462.174	45.11534
462.619	45.62444
463.063	45.84748
463.507	45.85981
463.951	45.78911
464.394	46.09516
464.838	46.21986
465.282	46.07606
465.726	46.18737
466.17	46.21207
466.613	46.79749
467.057	46.76536
467.5	46.96826
467.944	47.1913
468.387	47.34621
468.831	47.56505
469.274	47.93895
469.717	48.22878
470.16	47.78146
470.603	48.1013
471.047	48.05323
471.49	48.53239
471.933	48.85119
472.376	49.16417
472.818	49.49753
473.261	49.36658
473.704	49.70411
474.147	50.02772
474.59	49.77878
475.032	50.23206
475.475	50.37915
475.917	50.63202
476.36	50.59862
476.802	50.66624
477.245	51.08614
477.687	51.2534
478.129	51.207
478.571	51.43094
479.013	51.59598
479.456	51.79428
479.898	52.02338
480.34	52.25812
480.782	52.33186
481.224	52.48225
481.665	52.75828
482.107	53.1609
482.549	53.4072
482.991	53.2279
483.432	53.62961
483.874	53.6266
484.315	53.47234
484.757	53.53144
485.198	53.95017
485.64	54.14544
486.081	54.29321
486.522	54.17983
486.963	54.25007
487.405	54.25728
487.846	54.43904
488.287	54.89387
488.728	54.61423
489.169	55.27734
489.61	54.61454
490.05	54.60224
490.491	55.08405
490.932	55.28709
491.373	55.19512
491.813	55.22066
492.254	55.00003
492.694	55.12303
493.135	55.20185
493.575	55.1314
494.016	55.56722
494.456	55.80538
494.896	55.4208
495.336	55.89712
495.777	55.94558
496.217	55.87109
496.657	55.93214
497.097	56.61084
497.537	56.39409
497.977	56.25305
498.416	56.38568
498.856	56.63683
499.296	56.90853
499.736	56.69636
500.175	56.78639
500.615	56.8118
501.054	57.11043
501.494	57.17801
501.933	57.09766
502.373	57.2366
502.812	57.70219
503.251	58.05933
503.69	58.08191
504.129	58.25178
504.569	58.1969
505.008	58.62132
505.447	58.9438
505.886	58.92579
506.324	58.98793
506.763	58.85151
507.202	59.71445
507.641	59.62584
508.079	59.95759
508.518	60.5724
508.957	60.16599
509.395	61.20653
509.834	61.2269
510.272	61.19638
510.71	61.71898
511.149	61.74971
511.587	61.59094
512.025	61.65304
512.463	62.21918
512.901	62.38031
513.339	62.19678
513.777	63.69113
514.215	62.69351
514.653	62.96393
515.091	63.24901
515.529	64.22857
515.966	64.13286
516.404	63.47109
516.842	64.64008
517.279	64.70847
517.717	64.27371
518.154	64.82207
518.592	65.33129
519.029	65.72911
519.466	66.12734
519.904	65.64263
520.341	66.40917
520.778	66.49922
521.215	66.79454
521.652	67.35952
522.089	67.02252
522.526	67.32504
522.963	67.10094
523.399	67.41022
523.836	67.71455
524.273	67.80475
524.71	67.80283
525.146	68.38294
525.583	68.84211
526.019	69.3142
526.456	68.85689
526.892	68.96858
527.328	69.05291
527.765	69.52362
528.201	70.05898
528.637	70.27817
529.073	70.74254
529.509	71.27697
529.945	70.35031
530.381	71.29336
530.817	71.15974
531.253	71.19631
531.689	71.7283
532.124	71.67993
532.56	71.92997
532.996	72.28102
533.431	72.11147
533.867	72.89835
534.302	72.94575
534.738	72.72428
535.173	73.05496
535.608	73.24594
536.044	73.55475
536.479	73.72555
536.914	73.65916
537.349	73.73348
537.784	74.34067
538.219	73.56536
538.654	74.01303
539.089	73.68995
539.524	73.97818
539.959	74.37311
540.393	74.74981
540.828	74.89051
541.263	74.36506
541.697	74.09185
542.132	74.76139
542.566	74.70356
543.001	74.75337
543.435	75.18366
543.869	75.21887
544.303	74.80861
544.738	75.69693
545.172	75.42519
545.606	75.04658
546.04	75.8524
546.474	74.81731
546.908	74.78495
547.342	74.77496
547.775	74.86174
548.209	74.60939
548.643	74.21461
549.077	74.65588
549.51	74.34589
549.944	74.01539
550.377	74.72586
550.811	74.14952
551.244	74.47126
551.677	74.0944
552.111	73.70307
552.544	73.60094
552.977	73.49398
553.41	73.22612
553.843	73.09283
554.276	72.87249
554.709	72.93037
555.142	73.0482
555.575	73.1582
556.008	72.88321
556.44	72.3586
556.873	72.07879
557.306	72.16059
557.738	72.13158
558.171	71.72694
558.603	71.74801
559.036	71.91962
559.468	71.28234
559.9	70.75425
560.333	70.37158
560.765	70.25462
561.197	70.4975
561.629	70.3858
562.061	69.91905
562.493	69.50661
562.925	69.70686
563.357	69.24309
563.789	68.92269
564.22	68.33352
564.652	68.59702
565.084	68.50876
565.515	68.32298
565.947	68.33159
566.378	68.31897
566.81	67.63563
567.241	67.699
567.672	67.22775
568.104	67.33234
568.535	67.1908
568.966	66.47288
569.397	65.85792
569.828	66.16484
570.259	65.75713
570.69	65.4068
571.121	65.09909
571.552	65.15563
571.983	64.77908
572.414	64.08104
572.844	64.21125
573.275	64.08749
573.705	63.97878
574.136	63.69865
574.566	63.1181
574.997	62.92099
575.427	62.47437
575.857	62.22071
576.288	61.83545
576.718	61.71065
577.148	61.47886
577.578	61.38349
578.008	60.98531
578.438	60.80016
578.868	60.84396
579.298	60.59551
579.728	59.99536
580.157	60.53174
580.587	59.73746
581.017	59.37023
581.446	59.39317
581.876	59.33549
582.305	58.92795
582.735	58.62204
583.164	58.31802
583.593	57.76628
584.023	57.78604
584.452	57.51594
584.881	57.50602
585.31	57.13249
585.739	57.0305
586.168	56.65369
586.597	56.76071
587.026	56.46356
587.455	56.39619
587.884	55.96034
588.312	55.77754
588.741	55.60825
589.17	55.66145
589.598	55.26011
590.027	55.1973
590.455	55.20543
590.884	54.99972
591.312	54.72356
591.74	54.5505
592.168	54.52058
592.597	54.23602
593.025	54.02021
593.453	53.54606
593.881	53.19853
594.309	53.20229
594.737	52.51472
595.165	52.26202
595.592	52.15917
596.02	51.94521
596.448	52.48286
596.875	52.15954
597.303	51.64853
597.73	51.54057
598.158	51.26662
598.585	51.06941
599.013	51.03264
599.44	51.09817
599.867	50.63517
600.294	50.61056
600.722	50.38192
601.149	50.30127
601.576	50.42062
602.003	49.66052
602.43	49.63792
602.856	49.77434
603.283	49.5821
603.71	49.3125
604.137	49.29051
604.563	48.81161
604.99	48.94355
605.416	49.08512
605.843	48.59916
606.269	48.41313
606.696	47.9479
607.122	48.04248
607.548	47.39807
607.975	47.55606
608.401	47.38776
608.827	47.36582
609.253	47.23956
609.679	47.50022
610.105	46.84878
610.531	46.47001
610.956	47.09377
611.382	46.90063
611.808	47.32444
612.234	46.39342
612.659	46.48779
613.085	46.95049
613.51	46.23836
613.936	45.89248
614.361	46.33436
614.786	46.22438
615.212	46.00822
615.637	45.66303
616.062	45.97727
616.487	45.67755
616.912	46.04849
617.337	46.12973
617.762	45.8124
618.187	45.67053
618.612	45.41697
619.037	45.41049
619.461	45.41403
619.886	45.21404
620.311	45.44567
620.735	45.08668
621.16	45.11543
621.584	45.03489
622.008	44.95499
622.433	44.99179
622.857	45.0132
623.281	44.65921
623.705	45.50855
624.13	44.96593
624.554	45.24792
624.978	44.88234
625.402	45.03818
625.826	44.70551
626.249	44.91883
626.673	44.9579
627.097	45.19269
627.521	45.15244
627.944	45.24237
628.368	44.90452
628.791	44.67632
629.215	44.62987
629.638	44.89302
630.061	45.13438
630.485	44.75389
630.908	44.71555
631.331	45.09531
631.754	44.92024
632.177	45.17143
632.6	44.80483
633.023	44.99094
633.446	44.89619
633.869	45.61921
634.292	45.41502
634.715	45.97991
635.137	45.02191
635.56	45.43794
635.982	45.45868
636.405	45.80801
636.827	45.7823
637.25	45.40031
637.672	45.65524
638.094	45.6571
638.517	45.73803
638.939	46.19617
639.361	46.2654
639.783	46.2077
640.205	46.49092
640.627	46.34095
641.049	46.1417
641.471	46.18588
641.893	46.35385
642.314	46.78191
642.736	47.08829
643.158	46.71216
643.579	47.17087
644.001	47.15427
644.422	46.96583
644.844	47.41671
645.265	47.62282
645.686	47.47996
646.107	47.76478
646.529	47.78015
646.95	48.38505
647.371	48.27013
647.792	48.59556
648.213	48.99497
648.634	48.5792
649.055	48.83963
649.475	49.5106
649.896	49.59884
650.317	49.62501
650.737	49.32178
651.158	49.50776
651.578	49.75181
651.999	50.00645
652.419	50.13072
652.84	50.77483
653.26	50.96202
653.68	50.7452
654.1	51.15475
654.521	51.26583
654.941	51.09995
655.361	51.13851
655.781	51.73569
656.2	51.69768
656.62	51.86584
657.04	51.44131
657.46	52.17836
657.879	52.05927
658.299	52.42185
658.719	52.95494
659.138	52.94516
659.558	53.16297
659.977	53.15607
660.396	53.16559
660.816	53.34821
661.235	53.60811
661.654	53.78875
662.073	54.06028
662.492	54.38177
662.911	54.41032
663.33	54.14364
663.749	54.57169
664.168	54.53775
664.587	54.94038
665.006	55.38409
665.424	54.95891
665.843	54.98483
666.261	55.85998
666.68	55.57111
667.098	56.21476
667.517	55.8555
667.935	55.86392
668.353	55.21953
668.772	55.01028
669.19	55.8514
669.608	55.32575
670.026	56.04622
670.444	56.28424
670.862	55.95321
671.28	56.8668
671.698	56.25296
672.115	56.60221
672.533	56.65735
672.951	56.96035
673.368	56.66491
673.786	56.41451
674.203	56.11173
674.621	56.81957
675.038	56.49206
675.456	56.93557
675.873	56.35098
676.29	56.86408
676.707	56.52044
677.124	56.61617
677.541	56.60321
677.958	56.49292
678.375	56.89605
678.792	56.87263
679.209	56.91606
679.626	56.85975
680.043	57.00813
680.459	56.9843
680.876	56.50011
681.292	56.82838
681.709	56.61294
682.125	56.50318
682.542	56.65282
682.958	56.34256
683.374	56.72781
683.79	56.45136
684.207	56.17844
684.623	56.04313
685.039	56.16279
685.455	56.49101
685.871	55.63814
686.286	56.13068
686.702	56.05303
687.118	56.13018
687.534	55.73267
687.949	55.78752
688.365	55.85484
688.781	55.31197
689.196	55.15942
689.611	54.95433
690.027	55.00813
690.442	54.47201
690.857	54.60148
691.273	54.36363
691.688	54.89388
692.103	54.40807
692.518	53.56619
692.933	53.96286
693.348	53.21357
693.763	53.25636
694.177	53.18343
694.592	53.23265
695.007	52.87908
695.421	52.34306
695.836	52.16446
696.25	51.77708
696.665	51.81489
697.079	51.87044
697.494	51.77254
697.908	50.9726
698.322	51.17211
698.736	50.42668
699.151	50.6816
699.565	50.85707
699.979	50.9078
700.393	50.45412
700.806	50.1999
701.22	49.87974
701.634	49.65364
702.048	49.76252
702.461	49.05717
702.875	49.29857
703.289	48.85506
703.702	49.5964
704.116	48.75295
704.529	49.05553
704.942	48.19731
705.356	48.32862
705.769	47.98719
706.182	47.97105
706.595	47.24451
707.008	47.32968
707.421	47.26085
707.834	46.33551
708.247	46.26935
708.66	46.25519
709.072	46.07002
709.485	45.38939
709.898	45.41879
710.31	44.5689
710.723	45.06916
711.135	44.25924
711.548	44.21438
711.96	43.49203
712.373	43.69864
712.785	42.80673
713.197	42.80719
713.609	42.56657
714.021	42.30287
714.433	41.62274
714.845	42.02417
715.257	41.98858
715.669	41.35818
716.081	40.83271
716.493	40.72448
716.904	40.12899
717.316	40.18406
717.727	40.00916
718.139	39.56106
718.55	39.05511
718.962	39.296
719.373	38.75166
719.784	38.55974
720.196	38.39888
720.607	38.19982
721.018	37.90108
721.429	37.60462
721.84	37.59578
722.251	37.34669
722.662	36.94163
723.073	36.92455
723.483	36.47774
723.894	36.36168
724.305	36.25815
724.715	35.66469
725.126	35.2999
725.536	35.39251
725.947	35.19235
726.357	34.78457
726.768	34.61529
727.178	34.1659
727.588	34.12795
727.998	33.55611
728.408	33.57441
728.818	33.25754
729.228	33.25215
729.638	33.2044
730.048	33.13437
730.458	33.2132
730.868	32.33249
731.277	32.79308
731.687	32.21383
732.097	31.96026
732.506	31.67735
732.916	31.90136
733.325	31.49703
733.734	31.82633
734.144	31.24527
734.553	31.37489
734.962	30.6429
735.371	30.88961
735.78	30.24725
736.189	30.21884
736.598	29.7966
737.007	30.47456
737.416	29.19895
737.825	29.97769
738.233	29.43899
738.642	29.81076
739.051	29.10215
739.459	28.88457
739.868	28.95748
740.276	29.11497
740.684	28.57396
741.093	28.41454
741.501	28.42458
741.909	28.71277
742.317	28.39307
742.725	28.19256
743.133	28.08997
743.541	27.69596
743.949	27.85867
744.357	27.42871
744.765	27.96051
745.173	27.19264
745.58	27.76553
745.988	27.05705
746.396	27.4942
746.803	26.85894
747.211	27.21599
747.618	26.6026
748.025	26.73817
748.433	26.672
748.84	26.1912
749.247	26.47677
749.654	25.9995
750.061	26.29798
750.468	25.83188
750.875	26.16396
751.282	25.45792
751.689	25.78726
752.096	25.82347
752.502	25.92631
752.909	25.41127
753.316	25.76046
753.722	25.452
754.129	25.2603
754.535	25.38793
754.941	25.02545
755.348	25.58261
755.754	25.04164
756.16	25.13923
756.566	24.54979
756.972	24.84449
757.378	24.41541
757.784	24.76204
758.19	24.46475
758.596	24.33031
759.002	24.62149
759.408	23.91546
759.813	24.521
760.219	24.09629
760.624	24.58178
761.03	24.30662
761.435	24.22683
761.841	23.78703
762.246	23.83318
762.651	24.21127
763.057	23.65033
763.462	24.73759
763.867	24.19917
764.272	24.70896
764.677	24.7639
765.082	24.64105
765.487	24.46546
765.892	24.13181
766.296	24.33139
766.701	23.9592
767.106	24.30406
767.51	23.67694
767.915	23.78113
768.319	23.66758
768.724	23.94111
769.128	23.73191
769.532	23.70387
769.936	23.79721
770.341	22.99093
770.745	23.83077
771.149	23.35987
771.553	23.36608
771.957	23.44068
772.361	23.27911
772.764	23.71098
773.168	23.5018
773.572	23.63947
773.976	23.07435
774.379	23.43549
774.783	22.93719
775.186	23.14165
775.59	23.16311
775.993	23.0567
776.396	23.30127
776.8	22.82149
777.203	22.97188
777.606	23.00118
778.009	22.90785
778.412	23.4124
778.815	22.7938
779.218	23.34931
779.621	22.83472
780.023	22.62817
780.426	22.92328
780.829	22.96691
781.231	23.36866
781.634	22.66182
782.036	23.36305
782.439	22.77006
782.841	22.92245
783.244	23.07899
783.646	22.84785
784.048	23.1927
784.45	22.60032
784.852	23.04936
785.254	22.5779
785.656	22.56553
786.058	22.88846
786.46	22.26805
786.862	22.66051
787.264	22.3965
787.665	22.46304
788.067	22.71265
788.468	22.6058
788.87	22.76681
789.271	22.47823
789.673	23.16413
790.074	22.62923
790.475	22.39438
790.877	23.23913
791.278	22.43232
791.679	23.03483
792.08	22.45601
792.481	22.86185
792.882	22.87796
793.283	22.3409
793.683	22.76577
794.084	22.27736
794.485	22.41739
794.886	22.80938
795.286	22.03361
795.687	22.74697
796.087	22.3265
796.487	22.42882
796.888	22.84756
797.288	22.14283
797.688	23.16501
798.088	22.22952
798.489	22.43196
798.889	22.7897
799.289	22.46738
799.689	23.0213
800.088	22.53401
800.488	22.94003
800.888	22.99405
801.288	22.54454
801.687	23.16081
802.087	22.61438
802.486	22.97258
802.886	23.1326
803.285	23.20743
803.685	23.37563
804.084	22.87851
804.483	22.60489
804.882	23.33887
805.281	22.9449
805.68	23.22789
806.079	22.91993
806.478	23.30039
806.877	22.97915
807.276	23.0575
807.675	23.32542
808.074	22.92676
808.472	23.27738
808.871	23.49122
809.269	22.5866
809.668	23.22333
810.066	23.22358
810.465	22.38584
810.863	23.0407
811.261	23.00428
811.659	23.10299
812.057	23.27547
812.455	23.18677
812.853	23.23134
813.251	23.1736
813.649	22.41076
814.047	23.27538
814.445	22.53194
814.843	23.14976
815.24	23.02
815.638	22.88162
816.035	23.38253
816.433	22.61291
816.83	22.65373
817.228	23.03559
817.625	22.7281
818.022	23.26757
818.419	23.37074
818.816	22.92185
819.213	23.2948
819.61	22.83534
820.007	23.35624
820.404	23.53168
820.801	23.14171
821.198	23.98951
821.595	23.59737
821.991	23.52405
822.388	24.41899
822.784	24.17449
823.181	24.73886
823.577	24.93195
823.974	24.61055
824.37	24.94699
824.766	24.58176
825.162	24.40785
825.558	24.56604
825.954	23.87796
826.35	24.32176
826.746	24.80699
827.142	24.3039
827.538	24.89981
827.934	24.86119
828.33	24.69218
828.725	24.82932
829.121	24.07864
829.516	24.15713
829.912	24.30137
830.307	24.2514
830.703	23.8417
831.098	24.00004
831.493	23.23178
831.888	23.69041
832.283	23.52879
832.678	23.3326
833.073	23.90025
833.468	23.63807
833.863	23.9766
834.258	24.6866
834.653	23.97817
835.048	24.07641
835.442	24.87869
835.837	23.92702
836.231	24.39102
836.626	24.47496
837.02	24.24469
837.415	24.23674
837.809	23.9943
838.203	23.90326
838.597	24.21748
838.991	23.00066
839.385	23.65823
839.779	23.94114
840.173	23.73333
840.567	24.63714
840.961	24.30578
841.355	24.0132
841.748	24.72314
842.142	24.16376
842.536	24.18287
842.929	24.42442
843.323	24.83146
843.716	24.59358
844.109	25.29172
844.503	25.12392
844.896	24.37836
845.289	25.10968
845.682	24.97469
846.075	24.20148
846.468	24.70748
846.861	24.29142
847.254	24.48172
847.647	25.08529
848.04	24.45868
848.432	25.02931
848.825	24.41267
849.217	24.82435
849.61	24.95368
850.002	24.76064
850.395	23.74223
850.787	25.09696
851.179	24.34692
851.572	25.13776
851.964	25.08323
852.356	24.86171
852.748	25.26847
853.14	24.93758
853.532	24.55366
853.924	24.4627
854.315	25.39523
854.707	24.61962
855.099	24.26801
855.491	24.76227
855.882	24.93303
856.274	25.02874
856.665	25.01318
857.056	25.21705
857.448	24.56378
857.839	25.05145
858.23	24.55512
858.621	24.42795
859.012	25.25724
859.403	24.78093
859.794	25.55807
860.185	25.28527
860.576	24.0534
860.967	25.1614
861.358	24.89601
861.748	24.91932
862.139	25.2316
862.529	24.84758
862.92	24.77879
863.31	25.57245
863.701	25.06283
864.091	24.78136
864.481	25.2581
864.872	25.32007
865.262	24.81363
865.652	25.63054
866.042	24.99302
866.432	24.60429
866.822	25.27297
867.211	25.68151
867.601	24.83343
867.991	25.36221
868.381	25.14806
868.77	24.73988
869.16	25.52562
869.549	24.82815
869.939	24.20018
870.328	24.89137
870.717	25.57965
871.106	23.83239
871.496	24.79888
871.885	25.25626
872.274	24.55086
872.663	25.05149
873.052	25.703
873.441	24.1827
873.829	24.66037
874.218	24.78607
874.607	24.82055
874.996	24.84542
875.384	25.10014
875.773	24.52749
876.161	24.61398
876.549	24.95001
876.938	24.41549
877.326	24.51229
877.714	24.78028
878.102	24.25518
878.491	24.58485
878.879	24.53233
879.267	24.31063
879.655	24.41945
880.042	25.09267
880.43	25.08799
880.818	24.65947
881.206	25.14426
881.593	25.53108
881.981	25.23929
882.368	25.59729
882.756	25.74642
883.143	25.26821
883.53	25.49466
883.918	25.44189
884.305	24.96125
884.692	24.66657
885.079	25.20689
885.466	24.7158
885.853	24.89296
886.24	25.06986
886.627	24.05028
887.014	24.76511
887.4	24.56211
887.787	24.91312
888.174	24.73589
888.56	24.96751
888.947	25.05035
889.333	24.44985
889.719	25.03883
890.106	24.45659
890.492	24.01303
890.878	24.48746
891.264	24.429
891.65	24.19472
892.036	23.71222
892.422	24.53342
892.808	24.4255
893.194	23.68682
893.58	24.60078
893.965	24.44902
894.351	24.00092
894.736	24.21535
895.122	24.16044
895.507	24.42234
895.893	24.4374
896.278	24.66192
896.663	24.13549
897.049	24.43379
897.434	24.28853
897.819	23.93867
898.204	24.24526
898.589	24.34989
898.974	24.47247
899.359	24.00966
899.743	23.82412
900.128	24.22576
900.513	23.52697
900.897	23.17834
901.282	23.85407
901.667	23.194
902.051	23.45065
902.435	24.26066
902.82	23.36796
903.204	23.19347
903.588	24.09384
903.972	24.35492
904.356	23.85001
904.74	24.00129
905.124	24.70412
905.508	24.29722
905.892	24.03844
906.276	24.6934
906.659	24.41998
907.043	23.52366
907.427	24.32533
907.81	24.59317
908.194	23.88277
908.577	24.24953
908.96	24.99825
909.344	24.53285
909.727	24.04364
910.11	24.80867
910.493	23.91819
910.876	23.61933
911.259	24.40746
911.642	24.39764
912.025	23.52621
912.408	23.47269
912.79	23.86469
913.173	23.54056
913.556	23.6748
913.938	23.57452
914.321	24.16573
914.703	23.32798
915.086	23.95223
915.468	24.08234
915.85	23.72969
916.232	23.93259
916.614	24.23856
916.996	24.32653
917.378	23.30656
917.76	23.5608
918.142	23.83946
918.524	23.98271
918.906	23.98258
919.288	23.72851
919.669	23.6227
920.051	24.43527
920.432	24.60037
920.814	24.50825
921.195	23.70227
921.577	23.7858
921.958	23.77659
922.339	23.79656
922.72	23.38239
923.101	23.49895
923.482	25.40573
923.863	23.76115
924.244	23.49401
924.625	23.93697
925.006	24.16407
925.387	22.92041
925.767	23.05818
926.148	23.69118
926.528	23.47913
926.909	22.94005
927.289	23.71399
927.67	23.74244
928.05	24.07394
928.43	22.88572
928.81	23.68975
929.191	24.33391
929.571	23.34745
929.951	23.54234
930.331	24.73091
930.71	22.73691
931.09	24.64255
931.47	24.35281
931.85	23.65205
932.229	22.32243
932.609	22.63916
932.988	23.90092
933.368	22.97497
933.747	22.54621
934.127	23.01078
934.506	23.58856
934.885	22.21312
935.264	23.30935
935.643	23.83937
936.022	23.22978
936.401	23.91258
936.78	23.71745
937.159	23.19764
937.538	22.31902
937.916	22.95346
938.295	23.3143
938.674	23.20556
939.052	24.55803
939.431	23.50254
939.809	22.95376
940.187	23.9849
940.566	24.16094
940.944	22.57712
941.322	23.54692
941.7	22.1835
942.078	21.9679
942.456	23.48676
942.834	22.90315
943.212	22.41544
943.59	22.07389
943.968	21.42746
944.345	21.53738
944.723	22.70157
945.1	21.42422
945.478	22.67108
945.855	22.36304
946.233	22.36173
946.61	21.9476
946.987	20.95854
947.365	20.75066
947.742	20.72911
948.119	22.24542
948.496	21.93131
948.873	21.97464
949.25	21.54457
949.626	22.17861
950.003	21.17021
950.38	20.43109
950.756	21.09294
951.133	21.5129
951.51	20.70584
951.886	21.20325
952.262	21.9008
952.639	23.23802
953.015	20.74966
953.391	20.1208
953.767	21.06525
954.143	20.24778
954.519	19.3906
954.895	20.33055
955.271	21.58002
955.647	16.85484
956.023	20.10199
956.399	21.82461
956.774	20.68947
957.15	18.92064
957.525	22.12278
957.901	19.33719
958.276	20.19483
958.652	21.71136
959.027	18.57421
959.402	20.4599
959.777	19.4948
960.152	22.39866
960.527	19.18367
960.902	19.60823
961.277	22.06488
961.652	19.23941
962.027	18.58055
962.402	21.86494
962.776	20.01139
963.151	20.75214
963.525	20.3241
963.9	20.78595
964.274	21.71189
964.649	20.73126
965.023	20.52113
965.397	21.24952
965.771	19.22304
966.146	19.21506
966.52	20.26592
966.894	22.04438
967.268	18.88076
967.641	20.52784
968.015	21.66538
968.389	20.65477
968.763	20.04495
969.136	19.86384
969.51	19.05944
969.883	19.9124
970.257	19.27028
970.63	18.44318
971.003	19.11888
971.377	20.03975
971.75	19.27489
972.123	20.89244
972.496	20.64955
972.869	19.8587
973.242	20.35656
973.615	17.78481
973.988	19.43374
974.36	19.80555
974.733	20.16401
975.106	20.29906
975.478	20.85255
975.851	20.0176
976.223	19.59575
976.596	17.48161
976.968	20.74614
977.34	20.44786
977.712	19.64558
978.085	18.27162
978.457	19.32164
978.829	20.47536
979.201	19.06046
979.573	18.72368
979.944	20.32319
980.316	20.08374
980.688	19.90478
981.059	20.5118
981.431	18.5989
981.803	21.38154
982.174	20.51229
982.545	19.4767
982.917	19.90525
983.288	19.73002
983.659	20.69145
984.03	20.06731
984.401	19.81385
984.772	21.56804
985.143	18.45138
985.514	20.54212
985.885	17.80931
986.256	19.61478
986.627	18.61853
986.997	18.3027
987.368	19.77735
987.738	18.41853
988.109	19.16585
988.479	18.75585
988.85	18.48765
989.22	19.73606
989.59	17.89981
989.96	17.63486
990.33	18.05788
990.7	19.19682
991.07	17.7007
991.44	18.53865
991.81	18.12243
992.18	18.96046
992.549	19.84102
992.919	20.15103
993.289	17.80141
993.658	18.3247
994.028	21.07918
994.397	19.28405
994.766	18.41362
995.136	20.51413
995.505	17.88778
995.874	20.54156
996.243	18.71533
996.612	20.06355
996.981	18.05977
997.35	18.25668
997.719	18.14865
998.088	19.84448
998.456	18.4687
998.825	20.18833
999.194	17.12054
999.562	18.87951
999.931	18.67564
1000.299	15.97615
1000.667	20.75945
1001.036	20.85198
1001.404	20.60588
1001.772	17.19088
1002.14	17.81565
1002.508	20.43909
1002.876	18.77563
1003.244	20.86969
1003.612	18.04533
1003.98	20.77603
1004.347	18.43497
1004.715	14.07877
1005.083	18.92453
1005.45	17.62381
1005.818	19.33076
1006.185	18.508
1006.552	18.56192
1006.92	21.79671
1007.287	22.15855
1007.654	14.43735
1008.021	16.15947
1008.388	20.13754
1008.755	18.11415
1009.122	18.64809
1009.489	18.68752
1009.856	20.27299
1010.222	13.955
1010.589	16.95658
1010.956	20.36342
1011.322	19.54016
1011.689	17.1445
1012.055	14.57197
1012.421	19.87246
1012.788	15.40023
1013.154	18.0191
1013.52	18.20643
1013.886	19.0644
1014.252	17.08119
1014.618	17.21577
1014.984	16.34117
1015.35	20.02922
1015.716	20.01974
1016.081	22.34525
1016.447	19.16227
1016.813	19.10168
1017.178	21.01519
1017.544	20.6628
1017.909	18.20666
1018.274	24.51077
1018.64	16.52829
1019.005	16.17461
1019.37	17.72241
1019.735	20.61071
1020.1	21.8409
1020.465	12.01806
1020.83	13.82674
1021.195	17.07076
1021.56	24.2574
1021.924	20.68835
1022.289	6.13019
1022.654	19.62654
1023.018	11.81884
1023.383	18.68085
1023.747	17.46621
1024.111	15.28661
1024.476	18.59811
1024.84	12.84484
1025.204	16.59285
1025.568	9.66246
1025.932	14.78773
1026.296	11.25204
1026.66	7.12193
1027.024	10.59395
1027.387	8.45286
1027.751	11.46265
1028.115	24.93061
1028.478	14.46076
1028.842	20.57186
1029.205	8.62132
1029.569	14.5857
1029.932	11.41339
1030.295	14.54824
1030.659	13.05645
1031.022	13.67539
1031.385	21.89699
1031.748	19.75145
1032.111	10.82127
1032.474	9.36858
1032.836	9.24808
1033.199	14.127
1033.562	19.5008
1033.924	15.33426
1034.287	21.67057
1034.65	22.5591
1035.012	5.37262
1035.374	40.2923
1035.737	19.64243
1036.099	33.99045
1036.461	11.28762
1036.823	11.80846
1037.185	16.14048
1037.547	10.22554
1037.909	21.17329
1038.271	7.66489
1038.633	4.7919
1038.995	13.74253
1039.356	25.21004
1039.718	5.83877
1040.08	15.96616
1040.441	9.92411
1040.803	6.29038
1041.164	6.17868
1041.525	4.23802
1041.886	14.92034
1042.248	13.1519
1042.609	17.74567
1042.97	12.96276
1043.331	15.6068
1043.692	19.38939
1044.053	25.25254
1044.413	3.22428
1044.774	36.18181
1045.135	3.43195
1045.495	17.59287
1045.856	12.08851
1046.216	0.96579
1046.577	18.91219
1046.937	6.97454
1047.298	15.48745
