Data from 1017water_Reflection__20__21-02-15-788.txt Node

Date: Fri Oct 17 21:02:15 AST 2025
User: lin
Spectrometer: SR600411
Trigger mode: 0
Integration Time (sec): 5.846600E-2
Scans to average: 5
Nonlinearity correction enabled: true
Boxcar width: 0
Storing dark spectrum: false
XAxis mode: Wavelengths
Number of Pixels in Spectrum: 2048
>>>>>Begin Spectral Data<<<<<
187.982	49.3097
188.456	54.65564
188.93	28.28335
189.403	55.50309
189.877	42.07338
190.351	44.70476
190.825	53.71296
191.298	50.59012
191.772	42.32674
192.246	39.70303
192.719	57.20146
193.193	38.85387
193.666	47.90482
194.139	51.06144
194.613	45.84445
195.086	58.84858
195.559	51.69702
196.033	48.74242
196.506	50.23577
196.979	54.34876
197.452	51.98861
197.925	53.84828
198.398	57.80924
198.871	64.45993
199.344	53.71855
199.816	56.95698
200.289	62.332
200.762	47.35439
201.235	50.80762
201.707	48.10275
202.18	29.27436
202.652	47.66594
203.125	48.75743
203.597	54.53899
204.07	36.30467
204.542	27.7101
205.014	42.98513
205.486	28.48145
205.959	50.87922
206.431	11.94638
206.903	36.93544
207.375	18.37832
207.847	29.40618
208.319	29.82676
208.791	13.75891
209.263	34.34531
209.734	51.07227
210.206	7.27126
210.678	37.83095
211.15	20.63084
211.621	7.53224
212.093	39.6637
212.564	58.00896
213.036	28.31404
213.507	33.77723
213.979	29.54183
214.45	49.30785
214.921	-2.99939
215.392	34.42079
215.864	8.5452
216.335	49.99555
216.806	33.32885
217.277	11.00706
217.748	42.75579
218.219	29.51949
218.69	47.92065
219.161	9.08983
219.631	33.64926
220.102	37.20334
220.573	16.40278
221.043	17.94645
221.514	2.41878
221.985	34.33902
222.455	38.45667
222.926	0.90889
223.396	31.24456
223.866	21.04951
224.337	42.60313
224.807	59.99596
225.277	15.49112
225.747	17.09074
226.217	40.63776
226.687	20.64919
227.157	41.70587
227.627	11.53689
228.097	47.84472
228.567	44.24227
229.037	28.23903
229.507	43.78894
229.977	27.46894
230.446	15.06665
230.916	7.44553
231.386	51.57426
231.855	35.70793
232.325	14.28283
232.794	51.68909
233.263	24.9951
233.733	46.6615
234.202	16.78454
234.671	37.38597
235.14	45.38316
235.61	55.82748
236.079	18.08235
236.548	53.63095
237.017	54.94952
237.486	12.27827
237.955	14.43062
238.424	23.59233
238.892	37.85928
239.361	58.51204
239.83	6.09663
240.299	21.81447
240.767	0
241.236	58.02079
241.704	14.28334
242.173	60.25272
242.641	11.76261
243.109	38.79967
243.578	56.24377
244.046	64.61245
244.514	20.35036
244.982	20.99671
245.451	24.72776
245.919	12.6295
246.387	28.35282
246.855	23.80425
247.323	21.10815
247.791	-25.28191
248.258	42.41946
248.726	48.31021
249.194	5.81302
249.662	74.69569
250.129	27.0227
250.597	-14.41079
251.064	20.85877
251.532	13.82757
251.999	-22.72242
252.467	41.23247
252.934	37.20334
253.401	43.87279
253.869	20.19886
254.336	15.1141
254.803	25.40527
255.27	16.83947
255.737	26.84765
256.204	53.51763
256.671	45.5396
257.138	59.99478
257.605	13.15532
258.072	35.89034
258.539	13.92218
259.005	30.94705
259.472	43.7834
259.939	69.13238
260.405	12.086
260.872	57.13946
261.338	34.77745
261.805	37.11512
262.271	34.25936
262.737	30.10365
263.203	-7.89346
263.67	0.91724
264.136	25.54229
264.602	35.29028
265.068	18.60208
265.534	31.35091
266	27.67413
266.466	-26.31079
266.932	27.864
267.398	22.35002
267.864	-8.84741
268.329	59.53574
268.795	-34.71557
269.261	30.0928
269.726	4.94955
270.192	23.59233
270.657	21.33084
271.123	24.52442
271.588	40.38214
272.053	41.47499
272.519	-12.11944
272.984	55.31455
273.449	31.62846
273.914	19.75055
274.379	33.33016
274.844	19.08754
275.309	29.40757
275.774	33.05255
276.239	25.52838
276.704	6.94352
277.169	-18.06879
277.634	17.34416
278.098	27.27014
278.563	5.4787
279.028	24.63514
279.492	65.04391
279.957	17.14089
280.421	40.51171
280.886	-8.60043
281.35	47.6149
281.814	10.27842
282.279	-4.05344
282.743	41.99518
283.207	56.24533
283.671	-10.97363
284.135	22.54549
284.599	22.8547
285.063	32.6488
285.527	56.68674
285.991	34.32537
286.455	23.07373
286.919	48.09736
287.382	25.95758
287.846	22.60471
288.31	8.50919
288.773	25.94922
289.237	38.13008
289.7	33.07688
290.164	-22.96884
290.627	60.21064
291.09	63.21439
291.554	-32.78164
292.017	65.04392
292.48	16.89943
292.943	31.57651
293.406	28.96761
293.869	44.31389
294.332	17.94645
294.795	63.9131
295.258	10.7127
295.721	29.99585
296.184	29.08866
296.646	39.27911
297.109	51.15854
297.572	53.92821
298.034	46.86869
298.497	38.29348
298.959	40.42105
299.422	13.69692
299.884	49.5808
300.346	39.02053
300.809	7.47517
301.271	28.23188
301.733	0.8545
302.195	-23.91035
302.657	35.99544
303.119	48.18867
303.581	16.45355
304.043	19.41428
304.505	42.52453
304.967	1.42838
305.429	52.03598
305.891	18.88616
306.352	70.92672
306.814	25.34945
307.275	19.35197
307.737	38.37921
308.198	29.34405
308.66	22.78206
309.121	7.36714
309.583	65.78609
310.044	19.99588
310.505	52.74276
310.966	-12.90144
311.428	63.09137
311.889	35.08258
312.35	40.81165
312.811	12.35764
313.272	-15.62157
313.733	43.99513
314.193	-1.92208
314.654	50.35819
315.115	-17.2379
315.576	43.00625
316.036	17.7932
316.497	15.6225
316.957	53.09178
317.418	9.89921
317.878	41.24617
318.339	12.49879
318.799	55.13495
319.259	-3.65792
319.72	16.85147
320.18	0
320.64	9.99822
321.1	11.10882
321.56	27.42918
322.02	23.40092
322.48	21.51635
322.94	47.61387
323.4	18.08235
323.86	-19.71499
324.319	-18.51735
324.779	31.32177
325.239	15.4517
325.698	24.23883
326.158	71.4249
326.617	3.61389
327.077	34.9009
327.536	0
327.996	32.6488
328.455	13.23375
328.914	43.99634
329.373	-29.08682
329.832	17.34416
330.292	51.89483
330.751	23.58113
331.21	-18.64149
331.668	40.4901
332.127	32.22617
332.586	47.14841
333.045	37.16292
333.504	-16.66459
333.962	83.0326
334.421	35.06146
334.88	0
335.338	75.85997
335.797	-13.04214
336.255	37.971
336.714	55.63911
337.172	36.66253
337.63	14.11561
338.088	11.92434
338.547	27.35432
339.005	53.67954
339.463	52.37681
339.921	12.72607
340.379	8.98732
340.837	17.33121
341.295	11.2342
341.753	40.62042
342.21	34.61189
342.668	22.93196
343.126	6.86146
343.584	14.58097
344.041	23.70787
344.499	2.15015
344.956	17.23892
345.414	7.79111
345.871	38.45607
346.328	26.38612
346.786	33.61557
347.243	17.49772
347.7	-11.24802
348.157	32.13924
348.614	32.42762
349.071	-42.49521
349.528	37.49592
349.985	18.83641
350.442	-11.90255
350.899	42.04121
351.356	61.10688
351.812	34.44043
352.269	60.97175
352.726	24.99615
353.182	57.34965
353.639	4.65003
354.095	16.85146
354.552	39.59919
355.008	2.98469
355.465	37.28268
355.921	10.38819
356.377	48.27157
356.833	30.18426
357.289	61.8589
357.745	28.96761
358.201	22.76877
358.657	56.42176
359.113	36.83686
359.569	43.05905
360.025	25.2131
360.481	37.20137
360.937	44.01741
361.392	49.4101
361.848	12.8525
362.303	33.55048
362.759	42.67105
363.214	31.97244
363.67	54.70661
364.125	36.59688
364.581	41.62278
365.036	40.83508
365.491	52.35011
365.946	48.96848
366.401	51.29504
366.856	43.51284
367.311	53.63423
367.766	50.2344
368.221	51.95142
368.676	40.4952
369.131	47.75023
369.586	44.29582
370.041	49.70838
370.495	56.22533
370.95	51.22996
371.404	51.40999
371.859	50.78386
372.313	46.63088
372.768	53.62828
373.222	49.70985
373.676	51.34598
374.131	53.51794
374.585	52.28168
375.039	48.69701
375.493	51.47292
375.947	49.72742
376.401	53.61259
376.855	54.63427
377.309	49.68809
377.763	51.72123
378.217	54.0588
378.67	51.78931
379.124	56.18382
379.578	52.85466
380.031	53.81651
380.485	53.95135
380.938	51.55725
381.392	52.90779
381.845	53.94377
382.299	53.00635
382.752	50.75319
383.205	53.05405
383.658	50.99182
384.111	52.28638
384.564	52.44351
385.018	50.65816
385.471	51.66416
385.923	54.28675
386.376	53.75432
386.829	53.07754
387.282	53.42156
387.735	53.36683
388.187	53.711
388.64	53.55915
389.093	53.43053
389.545	52.67259
389.998	53.25734
390.45	53.82849
390.902	53.89741
391.355	53.4397
391.807	52.83983
392.259	54.09126
392.711	53.03508
393.163	53.29676
393.615	54.32514
394.068	54.09398
394.519	54.1952
394.971	53.98156
395.423	53.53501
395.875	54.2291
396.327	53.10084
396.779	53.71263
397.23	53.66771
397.682	53.54612
398.133	54.23442
398.585	53.44435
399.036	53.17194
399.488	53.97874
399.939	53.79688
400.39	53.42967
400.842	51.89497
401.293	53.3045
401.744	53.15165
402.195	52.97887
402.646	53.24262
403.097	53.0796
403.548	53.6548
403.999	52.44461
404.45	52.8326
404.9	52.72862
405.351	52.0695
405.802	53.00712
406.253	53.47598
406.703	52.63917
407.154	52.03367
407.604	52.39917
408.055	51.61891
408.505	52.30507
408.955	51.31601
409.406	51.11759
409.856	51.91685
410.306	51.495
410.756	51.03209
411.206	50.79924
411.656	51.31516
412.106	50.70834
412.556	50.96686
413.006	50.45482
413.456	50.53978
413.905	49.90115
414.355	50.07528
414.805	50.02526
415.254	49.51701
415.704	49.92365
416.153	49.96462
416.603	49.57582
417.052	49.1248
417.502	48.977
417.951	49.45236
418.4	49.22366
418.849	48.68325
419.298	48.70469
419.748	48.58147
420.197	48.62557
420.646	48.77887
421.094	48.18768
421.543	48.62624
421.992	48.44608
422.441	48.05126
422.89	47.58976
423.338	48.07972
423.787	47.24224
424.236	47.15988
424.684	47.35162
425.133	46.92055
425.581	46.67417
426.029	46.70108
426.478	46.3493
426.926	46.6586
427.374	46.43224
427.822	45.93051
428.27	45.923
428.718	46.37123
429.166	46.09932
429.614	46.53961
430.062	46.11885
430.51	45.93336
430.958	46.19745
431.406	45.60925
431.853	45.98591
432.301	45.41497
432.749	45.67563
433.196	45.4422
433.644	44.89541
434.091	44.7843
434.538	45.14031
434.986	44.87315
435.433	44.97006
435.88	45.16572
436.327	44.71704
436.775	44.57435
437.222	44.48428
437.669	44.81137
438.116	44.17494
438.563	44.45422
439.009	44.16212
439.456	44.48643
439.903	44.50132
440.35	44.38584
440.796	44.48708
441.243	44.81292
441.689	44.21589
442.136	44.38773
442.582	44.52395
443.029	44.93224
443.475	44.08908
443.921	44.69799
444.368	44.00558
444.814	43.78141
445.26	44.20374
445.706	44.28077
446.152	44.1374
446.598	44.45332
447.044	44.46092
447.49	44.48973
447.936	44.33527
448.381	44.02448
448.827	44.48394
449.273	44.49547
449.718	43.99236
450.164	44.15834
450.61	44.23835
451.055	44.28759
451.5	44.48665
451.946	44.27587
452.391	44.22806
452.836	44.11596
453.282	44.34326
453.727	44.0553
454.172	44.7503
454.617	44.45927
455.062	44.39297
455.507	44.42536
455.952	44.11455
456.396	44.69772
456.841	44.67173
457.286	44.69
457.731	44.93895
458.175	44.96471
458.62	44.80027
459.064	44.64582
459.509	44.76391
459.953	44.77718
460.398	44.66124
460.842	44.79654
461.286	45.33149
461.73	45.01163
462.174	44.97938
462.619	45.25573
463.063	45.50554
463.507	45.35729
463.951	45.50349
464.394	45.51123
464.838	45.56037
465.282	45.79397
465.726	45.53026
466.17	46.10356
466.613	46.04241
467.057	46.36685
467.5	46.76305
467.944	46.55089
468.387	46.4882
468.831	47.00376
469.274	47.51634
469.717	47.49413
470.16	47.3456
470.603	47.43568
471.047	47.57837
471.49	47.70276
471.933	48.02326
472.376	48.4178
472.818	48.82339
473.261	48.68727
473.704	48.54728
474.147	49.41197
474.59	48.58941
475.032	48.96733
475.475	49.60438
475.917	49.61954
476.36	49.77069
476.802	49.75652
477.245	49.80257
477.687	49.97951
478.129	49.84968
478.571	50.43232
479.013	50.85697
479.456	50.89125
479.898	51.03641
480.34	51.83547
480.782	51.30636
481.224	51.72017
481.665	51.88985
482.107	52.27394
482.549	52.4202
482.991	52.74367
483.432	52.49819
483.874	52.7907
484.315	52.43866
484.757	52.93112
485.198	53.41008
485.64	53.00252
486.081	53.37832
486.522	53.1122
486.963	53.81793
487.405	53.5926
487.846	53.5086
488.287	53.88655
488.728	53.63847
489.169	54.24482
489.61	54.12905
490.05	53.95271
490.491	54.30683
490.932	54.95275
491.373	54.87825
491.813	54.31648
492.254	54.48475
492.694	54.75754
493.135	54.89722
493.575	55.20209
494.016	55.0908
494.456	55.25994
494.896	55.30784
495.336	55.50868
495.777	55.20413
496.217	55.50782
496.657	55.90408
497.097	56.15282
497.537	56.12971
497.977	56.53279
498.416	56.05913
498.856	56.2295
499.296	56.06323
499.736	56.04245
500.175	56.23058
500.615	56.24334
501.054	56.64082
501.494	56.5669
501.933	56.65485
502.373	56.9439
502.812	57.31225
503.251	57.12203
503.69	57.40305
504.129	57.82482
504.569	57.54098
505.008	57.87671
505.447	58.57319
505.886	58.5175
506.324	58.99696
506.763	58.7217
507.202	59.06306
507.641	59.7101
508.079	59.35428
508.518	59.70337
508.957	59.9224
509.395	60.60259
509.834	60.81869
510.272	60.4069
510.71	60.96523
511.149	61.09806
511.587	61.37653
512.025	61.0844
512.463	61.8875
512.901	61.50014
513.339	62.15833
513.777	62.71781
514.215	62.82083
514.653	63.03611
515.091	63.39429
515.529	63.70622
515.966	63.6492
516.404	63.62832
516.842	63.89373
517.279	64.32035
517.717	64.49292
518.154	65.0268
518.592	65.10233
519.029	65.46013
519.466	65.53761
519.904	65.67838
520.341	66.18581
520.778	66.23501
521.215	66.54669
521.652	67.2216
522.089	66.90657
522.526	67.28538
522.963	67.08128
523.399	67.33455
523.836	67.97101
524.273	67.81839
524.71	68.5049
525.146	68.36629
525.583	68.88928
526.019	69.02614
526.456	68.81014
526.892	69.83509
527.328	69.64179
527.765	69.65678
528.201	70.13953
528.637	70.67623
529.073	70.99329
529.509	70.96955
529.945	70.84486
530.381	71.01854
530.817	71.04472
531.253	71.19162
531.689	72.35945
532.124	71.97556
532.56	72.28491
532.996	72.55932
533.431	72.3267
533.867	72.8888
534.302	72.96638
534.738	73.28871
535.173	73.97436
535.608	73.53301
536.044	74.25311
536.479	74.48766
536.914	74.10566
537.349	73.88292
537.784	73.8101
538.219	73.9042
538.654	74.25106
539.089	74.47841
539.524	74.684
539.959	74.6556
540.393	74.70719
540.828	74.90076
541.263	75.0887
541.697	74.55054
542.132	75.37299
542.566	75.45536
543.001	75.16176
543.435	75.57065
543.869	75.74965
544.303	75.06135
544.738	75.32483
545.172	75.36152
545.606	75.20856
546.04	75.84177
546.474	75.09607
546.908	75.20867
547.342	74.94183
547.775	74.75823
548.209	74.9829
548.643	74.38737
549.077	74.71368
549.51	74.39292
549.944	74.14045
550.377	74.87535
550.811	74.53597
551.244	74.29884
551.677	74.33632
552.111	73.59482
552.544	73.54751
552.977	73.13604
553.41	73.15204
553.843	73.68776
554.276	72.8829
554.709	73.57879
555.142	73.1601
555.575	73.27957
556.008	73.07496
556.44	72.58379
556.873	71.86437
557.306	72.4743
557.738	72.55854
558.171	71.47425
558.603	71.54596
559.036	71.07512
559.468	71.32656
559.9	70.7771
560.333	70.42194
560.765	70.39839
561.197	70.31155
561.629	70.49396
562.061	70.09164
562.493	69.17505
562.925	69.66626
563.357	69.39128
563.789	68.84759
564.22	68.90191
564.652	68.79332
565.084	68.56128
565.515	68.34907
565.947	68.29428
566.378	68.62804
566.81	68.18237
567.241	68.00765
567.672	67.52307
568.104	67.40792
568.535	67.56099
568.966	66.56941
569.397	66.62311
569.828	66.73345
570.259	66.1834
570.69	65.89312
571.121	65.46664
571.552	65.48208
571.983	65.19361
572.414	64.72777
572.844	64.54039
573.275	64.99384
573.705	64.73124
574.136	64.32734
574.566	64.10694
574.997	63.67182
575.427	63.17906
575.857	63.17698
576.288	63.01947
576.718	62.42084
577.148	62.56039
577.578	62.643
578.008	61.71716
578.438	62.04999
578.868	61.48379
579.298	61.72918
579.728	61.05288
580.157	61.39394
580.587	61.34532
581.017	61.19572
581.446	60.63007
581.876	60.82957
582.305	60.06822
582.735	60.20589
583.164	60.03578
583.593	59.15104
584.023	59.22212
584.452	59.14856
584.881	59.00132
585.31	58.55307
585.739	58.7848
586.168	58.07778
586.597	58.58756
587.026	57.9317
587.455	57.76112
587.884	57.73427
588.312	57.51077
588.741	57.33586
589.17	57.05675
589.598	57.16199
590.027	57.12455
590.455	56.6521
590.884	56.80439
591.312	56.18223
591.74	56.07619
592.168	56.30248
592.597	55.94505
593.025	55.4513
593.453	55.37034
593.881	55.39842
594.309	54.78079
594.737	54.38344
595.165	54.37027
595.592	54.09333
596.02	53.57338
596.448	54.02436
596.875	53.62458
597.303	53.19433
597.73	53.36174
598.158	53.28838
598.585	52.98469
599.013	52.8501
599.44	52.7803
599.867	52.7407
600.294	52.89116
600.722	52.47464
601.149	52.11926
601.576	52.41846
602.003	52.20724
602.43	51.66394
602.856	52.01001
603.283	51.55977
603.71	51.37348
604.137	51.19666
604.563	51.22134
604.99	51.25604
605.416	50.56802
605.843	50.58603
606.269	50.60855
606.696	50.0926
607.122	50.38165
607.548	49.78468
607.975	49.76693
608.401	49.84757
608.827	49.49418
609.253	49.81609
609.679	49.30274
610.105	49.01438
610.531	49.19254
610.956	49.14878
611.382	49.34953
611.808	49.29005
612.234	48.70878
612.659	48.67918
613.085	48.53999
613.51	48.43855
613.936	47.96013
614.361	48.43654
614.786	48.32241
615.212	48.07317
615.637	47.81636
616.062	48.1451
616.487	47.99004
616.912	48.32672
617.337	47.97852
617.762	47.70753
618.187	47.6849
618.612	47.57341
619.037	47.22198
619.461	47.2031
619.886	47.46429
620.311	47.38755
620.735	47.15704
621.16	47.15486
621.584	46.92868
622.008	46.71918
622.433	46.76894
622.857	47.11013
623.281	46.86906
623.705	47.00047
624.13	47.16311
624.554	46.75737
624.978	46.75851
625.402	46.74415
625.826	46.74084
626.249	46.46916
626.673	47.01398
627.097	47.05485
627.521	47.13849
627.944	46.90994
628.368	46.65269
628.791	46.66534
629.215	46.66061
629.638	46.73026
630.061	46.70723
630.485	46.43545
630.908	46.32533
631.331	46.62255
631.754	46.49274
632.177	46.95067
632.6	46.21703
633.023	46.84144
633.446	46.80094
633.869	46.85891
634.292	46.86151
634.715	47.05193
635.137	47.03973
635.56	47.13747
635.982	46.80465
636.405	46.96597
636.827	46.92919
637.25	47.01707
637.672	47.119
638.094	47.16493
638.517	47.04903
638.939	47.80543
639.361	47.46511
639.783	47.46372
640.205	47.59955
640.627	47.57943
641.049	47.54607
641.471	47.53683
641.893	48.09452
642.314	48.02609
642.736	47.92515
643.158	47.79907
643.579	47.99541
644.001	47.73132
644.422	48.29911
644.844	48.38167
645.265	48.54812
645.686	48.5143
646.107	48.33578
646.529	48.88736
646.95	49.07008
647.371	49.11573
647.792	49.13485
648.213	49.59909
648.634	49.61282
649.055	49.92381
649.475	50.14144
649.896	50.02353
650.317	50.71848
650.737	50.35063
651.158	49.96075
651.578	50.3113
651.999	50.62509
652.419	50.43711
652.84	50.55057
653.26	51.25504
653.68	51.06009
654.1	51.31491
654.521	51.93227
654.941	51.41302
655.361	51.66485
655.781	51.82911
656.2	51.32853
656.62	52.10846
657.04	52.22464
657.46	52.38177
657.879	52.3884
658.299	52.779
658.719	52.7901
659.138	53.1449
659.558	52.87344
659.977	53.18853
660.396	53.06812
660.816	53.27061
661.235	53.45015
661.654	53.64886
662.073	53.93548
662.492	53.99187
662.911	54.23944
663.33	54.31605
663.749	54.04168
664.168	54.41028
664.587	54.10536
665.006	54.49339
665.424	54.62388
665.843	54.49734
666.261	55.14342
666.68	54.79623
667.098	55.59962
667.517	55.72138
667.935	54.61829
668.353	54.67504
668.772	54.8293
669.19	54.93767
669.608	54.96194
670.026	55.11801
670.444	55.42615
670.862	55.55341
671.28	55.50395
671.698	55.77292
672.115	55.56676
672.533	55.75783
672.951	55.67264
673.368	55.72595
673.786	55.74263
674.203	55.44684
674.621	55.76273
675.038	55.67757
675.456	55.71918
675.873	55.49072
676.29	55.8434
676.707	55.76366
677.124	55.88807
677.541	55.94787
677.958	55.4211
678.375	55.53781
678.792	55.97174
679.209	55.50796
679.626	55.98095
680.043	55.53875
680.459	55.80088
680.876	55.72024
681.292	55.85781
681.709	55.51109
682.125	55.87802
682.542	55.50142
682.958	55.21093
683.374	55.24585
683.79	54.87857
684.207	55.16955
684.623	55.41275
685.039	55.20161
685.455	55.40926
685.871	54.17345
686.286	55.25168
686.702	54.62744
687.118	54.89956
687.534	54.77148
687.949	54.486
688.365	54.36765
688.781	53.9563
689.196	54.02452
689.611	53.64688
690.027	53.86317
690.442	53.00113
690.857	53.3052
691.273	52.93524
691.688	53.2803
692.103	53.6704
692.518	52.1903
692.933	52.70617
693.348	52.26918
693.763	52.50789
694.177	51.67754
694.592	51.77745
695.007	51.26206
695.421	51.02024
695.836	50.87707
696.25	50.17925
696.665	50.26229
697.079	49.98256
697.494	50.25699
697.908	50.02733
698.322	50.21198
698.736	49.67892
699.151	49.37945
699.565	49.29217
699.979	49.59751
700.393	49.2866
700.806	48.93063
701.22	48.84363
701.634	48.3167
702.048	48.6833
702.461	47.89025
702.875	48.28286
703.289	47.40051
703.702	48.20684
704.116	47.24358
704.529	47.62052
704.942	46.79448
705.356	46.92274
705.769	47.0057
706.182	46.64911
706.595	46.6928
707.008	46.0024
707.421	46.51576
707.834	45.12361
708.247	45.1273
708.66	45.07227
709.072	45.27798
709.485	44.05527
709.898	44.33398
710.31	43.67931
710.723	44.20757
711.135	43.45447
711.548	43.35472
711.96	42.51483
712.373	42.65267
712.785	42.14449
713.197	42.10765
713.609	41.15192
714.021	41.58314
714.433	40.74323
714.845	40.99951
715.257	40.50486
715.669	40.68264
716.081	40.35512
716.493	39.98398
716.904	39.91408
717.316	39.69043
717.727	39.60515
718.139	38.74914
718.55	38.7793
718.962	39.03087
719.373	38.50908
719.784	38.12586
720.196	38.0352
720.607	37.84404
721.018	37.8573
721.429	37.54263
721.84	37.23695
722.251	36.70004
722.662	36.93556
723.073	36.38067
723.483	36.54987
723.894	36.15782
724.305	36.40115
724.715	35.1957
725.126	35.10572
725.536	34.86685
725.947	34.75281
726.357	34.54301
726.768	34.58017
727.178	34.08455
727.588	33.96967
727.998	33.28773
728.408	33.22418
728.818	33.39424
729.228	33.24076
729.638	32.76525
730.048	33.20224
730.458	32.82242
730.868	32.50685
731.277	32.32243
731.687	32.03118
732.097	31.78795
732.506	31.61573
732.916	31.50882
733.325	31.70888
733.734	31.86887
734.144	31.32135
734.553	30.96559
734.962	30.45965
735.371	30.6597
735.78	30.02834
736.189	29.86031
736.598	29.6441
737.007	30.19637
737.416	29.29038
737.825	29.73905
738.233	29.07794
738.642	29.67214
739.051	29.05647
739.459	29.31347
739.868	28.96991
740.276	29.18113
740.684	28.46473
741.093	28.58839
741.501	28.53827
741.909	28.58202
742.317	28.42262
742.725	28.39235
743.133	28.45494
743.541	27.77926
743.949	27.76463
744.357	27.50106
744.765	27.85386
745.173	27.17928
745.58	28.0534
745.988	27.13209
746.396	27.48264
746.803	26.80682
747.211	27.20443
747.618	27.00436
748.025	27.15455
748.433	26.8889
748.84	26.66794
749.247	26.47867
749.654	26.12777
750.061	26.40592
750.468	25.55683
750.875	26.08479
751.282	25.51794
751.689	26.10693
752.096	25.64217
752.502	25.85824
752.909	25.59251
753.316	25.77655
753.722	25.90369
754.129	25.4731
754.535	25.35335
754.941	25.27036
755.348	25.87713
755.754	24.61939
756.16	25.09063
756.566	24.28037
756.972	25.21176
757.378	24.66557
757.784	24.92676
758.19	24.72851
758.596	24.45603
759.002	24.80909
759.408	24.07012
759.813	24.42182
760.219	24.40804
760.624	24.47335
761.03	24.22335
761.435	24.46361
761.841	23.69001
762.246	24.09285
762.651	23.90859
763.057	23.87164
763.462	24.66185
763.867	24.14966
764.272	24.89528
764.677	24.55133
765.082	24.78731
765.487	24.15355
765.892	24.31882
766.296	24.31509
766.701	23.83703
767.106	24.55658
767.51	23.72895
767.915	24.26094
768.319	23.77115
768.724	23.9957
769.128	23.86555
769.532	23.61461
769.936	23.56968
770.341	23.53792
770.745	23.79944
771.149	23.48378
771.553	23.8805
771.957	23.42844
772.361	23.49717
772.764	23.69349
773.168	23.45872
773.572	23.88415
773.976	23.15148
774.379	24.04737
774.783	23.20884
775.186	23.39254
775.59	23.5987
775.993	23.15886
776.396	23.5275
776.8	22.9308
777.203	23.17491
777.606	22.88814
778.009	23.32776
778.412	23.10734
778.815	23.12714
779.218	23.50066
779.621	22.786
780.023	23.30974
780.426	23.07543
780.829	23.00534
781.231	23.52004
781.634	22.8391
782.036	23.50859
782.439	22.67397
782.841	22.88943
783.244	23.11214
783.646	22.72297
784.048	23.39696
784.45	22.64709
784.852	23.2161
785.254	22.65888
785.656	22.83506
786.058	22.95785
786.46	22.58206
786.862	22.44528
787.264	22.11158
787.665	22.39409
788.067	22.60114
788.468	22.58025
788.87	23.14376
789.271	22.39874
789.673	23.17608
790.074	23.0771
790.475	22.84837
790.877	23.34045
791.278	22.57182
791.679	23.06665
792.08	22.73502
792.481	23.04903
792.882	23.32851
793.283	22.59519
793.683	23.48474
794.084	22.37451
794.485	22.96484
794.886	22.95118
795.286	22.19341
795.687	23.10965
796.087	22.25236
796.487	22.34353
796.888	22.9141
797.288	22.30508
797.688	23.15407
798.088	22.67242
798.489	23.10247
798.889	23.12945
799.289	22.93181
799.689	23.36593
800.088	22.86376
800.488	23.01645
800.888	22.8246
801.288	23.0128
801.687	23.48312
802.087	23.09221
802.486	23.2768
802.886	23.0224
803.285	23.44733
803.685	23.67386
804.084	22.96174
804.483	23.2726
804.882	23.73087
805.281	23.06393
805.68	23.48665
806.079	22.7696
806.478	23.75761
806.877	23.66808
807.276	23.13533
807.675	23.81096
808.074	23.39891
808.472	23.81324
808.871	23.85012
809.269	23.30985
809.668	23.29019
810.066	23.54211
810.465	23.23342
810.863	23.52359
811.261	23.18731
811.659	23.70618
812.057	23.85497
812.455	23.9656
812.853	23.452
813.251	23.00064
813.649	23.19734
814.047	23.53326
814.445	23.00736
814.843	23.4335
815.24	23.16684
815.638	23.44261
816.035	23.59473
816.433	23.58075
816.83	23.67412
817.228	23.64274
817.625	23.41079
818.022	23.97109
818.419	23.41432
818.816	23.47958
819.213	23.59167
819.61	23.34964
820.007	23.95642
820.404	23.97506
820.801	23.67876
821.198	24.59697
821.595	23.90845
821.991	24.11755
822.388	24.99608
822.784	24.59306
823.181	25.30341
823.577	25.41611
823.974	25.07622
824.37	25.74646
824.766	25.31033
825.162	25.08296
825.558	24.95433
825.954	24.36798
826.35	24.77658
826.746	25.13337
827.142	24.85887
827.538	25.43108
827.934	25.4627
828.33	25.14647
828.725	25.22954
829.121	24.88781
829.516	24.7391
829.912	24.97925
830.307	24.25318
830.703	24.26536
831.098	24.39215
831.493	23.99968
831.888	24.0996
832.283	23.91744
832.678	23.81828
833.073	24.53228
833.468	24.00329
833.863	24.45414
834.258	24.83978
834.653	24.51061
835.048	25.07975
835.442	25.19161
835.837	24.73489
836.231	25.17957
836.626	24.43277
837.02	25.04371
837.415	25.03544
837.809	24.55963
838.203	25.16422
838.597	24.37478
838.991	23.71225
839.385	24.18376
839.779	24.07
840.173	24.2463
840.567	24.98213
840.961	25.12048
841.355	24.80293
841.748	24.90221
842.142	25.22566
842.536	24.76996
842.929	25.49222
843.323	24.80345
843.716	25.15508
844.109	25.55047
844.503	24.96185
844.896	24.9469
845.289	25.79219
845.682	25.05875
846.075	24.83583
846.468	25.44669
846.861	25.21809
847.254	24.87654
847.647	25.32578
848.04	25.54329
848.432	25.24378
848.825	25.80821
849.217	25.06822
849.61	25.89666
850.002	25.05398
850.395	25.16694
850.787	25.19296
851.179	24.6838
851.572	26.58748
851.964	26.38102
852.356	26.02387
852.748	25.26847
853.14	25.34326
853.532	25.05408
853.924	25.05504
854.315	24.95898
854.707	25.15671
855.099	25.31118
855.491	25.78174
855.882	25.35744
856.274	24.98353
856.665	24.84649
857.056	25.30834
857.448	25.46732
857.839	25.95473
858.23	25.40021
858.621	25.8286
859.012	25.78423
859.403	25.17285
859.794	25.69378
860.185	26.02025
860.576	25.55029
860.967	26.0069
861.358	24.7915
861.748	25.44513
862.139	25.53911
862.529	25.15234
862.92	24.93733
863.31	25.70773
863.701	26.17176
864.091	24.80886
864.481	25.57245
864.872	25.96938
865.262	25.31664
865.652	26.21603
866.042	24.95466
866.432	25.04532
866.822	25.61384
867.211	25.48965
867.601	25.50777
867.991	25.84247
868.381	25.80408
868.77	25.22683
869.16	25.23648
869.549	24.97035
869.939	24.83126
870.328	25.75502
870.717	25.63384
871.106	24.4635
871.496	25.27885
871.885	25.37869
872.274	24.74018
872.663	25.4982
873.052	25.51809
873.441	25.04252
873.829	25.27456
874.218	25.49929
874.607	24.92521
874.996	25.49876
875.384	25.71135
875.773	24.8138
876.161	25.13135
876.549	24.84939
876.938	24.96909
877.326	25.06576
877.714	25.17981
878.102	24.4987
878.491	24.67366
878.879	25.17762
879.267	24.51154
879.655	24.7774
880.042	25.72872
880.43	25.4606
880.818	25.09641
881.206	25.90001
881.593	25.59742
881.981	25.599
882.368	25.98561
882.756	26.05403
883.143	25.72705
883.53	26.23552
883.918	25.6993
884.305	25.23983
884.692	25.70988
885.079	25.80491
885.466	25.10964
885.853	25.45618
886.24	25.1228
886.627	24.7937
887.014	24.95832
887.4	25.25037
887.787	25.12565
888.174	24.99895
888.56	25.80335
888.947	25.25585
889.333	24.83744
889.719	25.19574
890.106	25.0867
890.492	24.79391
890.878	24.69424
891.264	25.17595
891.65	24.26289
892.036	24.66207
892.422	24.60288
892.808	24.44758
893.194	24.09126
893.58	25.10964
893.965	25.02147
894.351	24.12384
894.736	24.67975
895.122	25.02647
895.507	24.83494
895.893	25.13301
896.278	24.73121
896.663	24.45745
897.049	24.97613
897.434	24.54195
897.819	24.1645
898.204	24.3779
898.589	24.91636
898.974	24.48064
899.359	24.57965
899.743	24.43404
900.128	24.42238
900.513	24.17607
900.897	24.0847
901.282	24.31894
901.667	23.90563
902.051	24.07465
902.435	24.16497
902.82	23.89987
903.204	23.66292
903.588	24.86976
903.972	24.44153
904.356	24.5152
904.74	24.89944
905.124	24.91232
905.508	24.48482
905.892	24.51037
906.276	24.75627
906.659	24.36295
907.043	24.63791
907.427	24.2811
907.81	24.68258
908.194	24.10859
908.577	24.89169
908.96	24.91462
909.344	24.55095
909.727	24.21505
910.11	24.37405
910.493	24.98184
910.876	23.91328
911.259	25.05067
911.642	25.25089
912.025	24.32531
912.408	23.95419
912.79	24.3793
913.173	23.57133
913.556	23.90109
913.938	24.28024
914.321	24.06622
914.703	23.65349
915.086	24.37608
915.468	24.60463
915.85	24.21596
916.232	24.01281
916.614	24.40169
916.996	24.71938
917.378	24.23987
917.76	23.95797
918.142	24.38614
918.524	24.34427
918.906	24.39296
919.288	24.63888
919.669	24.32208
920.051	24.02156
920.432	24.09647
920.814	24.96664
921.195	24.08721
921.577	23.42984
921.958	24.84209
922.339	23.85859
922.72	23.87539
923.101	24.69346
923.482	25.42082
923.863	22.89262
924.244	24.09504
924.625	24.28168
925.006	24.16407
925.387	23.48306
925.767	24.29446
926.148	23.56552
926.528	23.73058
926.909	23.91029
927.289	24.01606
927.67	23.39005
928.05	24.03783
928.43	22.81381
928.81	25.11979
929.191	24.15778
929.571	23.03892
929.951	23.24623
930.331	24.24399
930.71	24.29942
931.09	24.9107
931.47	25.11546
931.85	23.18363
932.229	22.64679
932.609	23.75364
932.988	23.97843
933.368	23.26142
933.747	23.78534
934.127	23.73896
934.506	23.66015
934.885	22.92801
935.264	23.63377
935.643	23.33522
936.022	24.12559
936.401	23.70095
936.78	24.66128
937.159	23.77769
937.538	22.67837
937.916	22.51041
938.295	23.75174
938.674	23.95728
939.052	23.57418
939.431	24.12589
939.809	23.61668
940.187	23.46672
940.566	24.08923
940.944	23.05475
941.322	23.02013
941.7	22.82589
942.078	22.59811
942.456	24.46593
942.834	23.32434
943.212	21.99774
943.59	22.12624
943.968	22.07339
944.345	21.69689
944.723	23.63519
945.1	21.85405
945.478	21.86155
945.855	22.20579
946.233	21.81762
946.61	22.37478
946.987	21.46078
947.365	21.38931
947.742	20.60961
948.119	22.63727
948.496	22.1126
948.873	20.63525
949.25	21.82744
949.626	21.49898
950.003	20.89669
950.38	22.20711
950.756	22.18163
951.133	19.91586
951.51	19.79683
951.886	21.55982
952.262	22.68877
952.639	21.79418
953.015	20.57247
953.391	21.73214
953.767	22.16391
954.143	21.16268
954.519	21.10789
954.895	22.42374
955.271	21.55639
955.647	19.44989
956.023	19.53347
956.399	21.11185
956.774	21.77177
957.15	20.62534
957.525	21.05577
957.901	19.47771
958.276	18.74425
958.652	20.46737
959.027	17.48396
959.402	21.07883
959.777	19.01251
960.152	19.81621
960.527	20.40261
960.902	18.60074
961.277	21.53413
961.652	19.63724
962.027	19.68859
962.402	20.99729
962.776	19.45849
963.151	18.79413
963.525	18.46852
963.9	20.3482
964.274	22.5207
964.649	22.08786
965.023	18.6506
965.397	21.71888
965.771	18.95899
966.146	20.92868
966.52	20.20819
966.894	18.86342
967.268	20.32659
967.641	21.72599
968.015	18.37358
968.389	19.62467
968.763	19.13258
969.136	19.63372
969.51	21.90379
969.883	20.16357
970.257	19.85897
970.63	18.98642
971.003	21.63027
971.377	22.02806
971.75	20.84353
972.123	21.66327
972.496	20.10402
972.869	19.09902
973.242	19.35082
973.615	19.0953
973.988	20.36994
974.36	19.62032
974.733	20.02631
975.106	20.47176
975.478	21.39583
975.851	20.183
976.223	20.886
976.596	19.54372
976.968	20.02817
977.34	20.32294
977.712	18.96965
978.085	18.62995
978.457	20.38359
978.829	19.67072
979.201	20.03792
979.573	19.65986
979.944	19.41441
980.316	20.61841
980.688	20.77555
981.059	20.11691
981.431	20.32144
981.803	20.42647
982.174	21.56934
982.545	21.78449
982.917	21.18831
983.288	19.45005
983.659	20.03471
984.03	17.40034
984.401	20.73497
984.772	21.56804
985.143	18.91877
985.514	20.91666
985.885	20.45656
986.256	19.24861
986.627	19.32955
986.997	18.47469
987.368	18.78334
987.738	20.38122
988.109	18.618
988.479	18.67452
988.85	19.20368
989.22	18.43849
989.59	19.14293
989.96	18.58795
990.33	18.67839
990.7	19.14975
991.07	18.57731
991.44	18.15307
991.81	18.45157
992.18	19.51376
992.549	19.61689
992.919	21.63064
993.289	18.59843
993.658	18.39022
994.028	20.04491
994.397	20.28026
994.766	19.31787
995.136	20.97458
995.505	18.91625
995.874	20.94646
996.243	18.32436
996.612	16.6229
996.981	18.88449
997.35	20.21496
997.719	18.36238
998.088	16.73409
998.456	19.68029
998.825	22.6696
999.194	18.55567
999.562	17.52996
999.931	20.15615
1000.299	19.99812
1000.667	19.20526
1001.036	19.14647
1001.404	20.76172
1001.772	19.17787
1002.14	19.24187
1002.508	16.83013
1002.876	17.55798
1003.244	21.73509
1003.612	19.35285
1003.98	21.26235
1004.347	18.99394
1004.715	16.63421
1005.083	18.20878
1005.45	20.1242
1005.818	19.19828
1006.185	17.69702
1006.552	19.85926
1006.92	19.29073
1007.287	16.23771
1007.654	17.85162
1008.021	17.87142
1008.388	20.40093
1008.755	18.50532
1009.122	17.09866
1009.489	18.3123
1009.856	16.80685
1010.222	16.14256
1010.589	17.58032
1010.956	18.75656
1011.322	20.20745
1011.689	18.86675
1012.055	16.89139
1012.421	18.83689
1012.788	16.76373
1013.154	21.05937
1013.52	14.24375
1013.886	18.69186
1014.252	15.94201
1014.618	19.16562
1014.984	16.08967
1015.35	17.70121
1015.716	23.35806
1016.081	20.72269
1016.447	22.01329
1016.813	23.24104
1017.178	20.61283
1017.544	20.55787
1017.909	18.54186
1018.274	23.76121
1018.64	15.72462
1019.005	20.63003
1019.37	18.29061
1019.735	19.15698
1020.1	18.51911
1020.465	13.753
1020.83	16.10937
1021.195	17.49411
1021.56	22.07626
1021.924	24.97522
1022.289	10.46677
1022.654	13.02969
1023.018	13.27619
1023.383	16.24373
1023.747	15.93377
1024.111	9.46254
1024.476	24.36027
1024.84	11.06062
1025.204	21.48455
1025.568	5.75614
1025.932	25.02805
1026.296	15.71477
1026.66	19.33324
1027.024	10.38621
1027.387	17.3406
1027.751	16.65407
1028.115	20.60296
1028.478	17.09046
1028.842	12.92989
1029.205	15.0329
1029.569	15.89207
1029.932	17.70334
1030.295	15.74087
1030.659	1.50638
1031.022	9.20428
1031.385	27.48902
1031.748	13.87236
1032.111	5.5255
1032.474	15.87533
1032.836	17.98357
1033.199	14.38864
1033.562	22.75147
1033.924	17.4496
1034.287	18.86573
1034.65	14.68878
1035.012	0
1035.374	26.44909
1035.737	11.26487
1036.099	16.99325
1036.461	12.93962
1036.823	3.74394
1037.185	26.07473
1037.547	6.26712
1037.909	18.68202
1038.271	12.9718
1038.633	6.16106
1038.995	22.17662
1039.356	13.93862
1039.718	17.86101
1040.08	19.79851
1040.441	0
1040.803	6.29038
1041.164	3.99792
1041.525	19.42589
1041.886	-7.95679
1042.248	8.64247
1042.609	23.54092
1042.97	12.96276
1043.331	12.61804
1043.692	21.11306
1044.053	24.20021
1044.413	2.82124
1044.774	17.90267
1045.135	7.72205
1045.495	8.79605
1045.856	1.39476
1046.216	11.10708
1046.577	17.56122
1046.937	8.13699
1047.298	9.38609
