Data from 1017water_Reflection__4__21-00-28-242.txt Node

Date: Fri Oct 17 21:00:28 AST 2025
User: lin
Spectrometer: SR600411
Trigger mode: 0
Integration Time (sec): 5.846600E-2
Scans to average: 5
Nonlinearity correction enabled: true
Boxcar width: 0
Storing dark spectrum: false
XAxis mode: Wavelengths
Number of Pixels in Spectrum: 2048
>>>>>Begin Spectral Data<<<<<
187.982	58.76961
188.456	48.87777
188.93	41.7857
189.403	45.50303
189.877	40.17486
190.351	41.59944
190.825	45.47769
191.298	44.56617
191.772	41.92354
192.246	47.83658
192.719	32.68325
193.193	33.61435
193.666	30.82321
194.139	50.63225
194.613	44.88909
195.086	55.83828
195.559	47.41133
196.033	58.10928
196.506	52.78685
196.979	52.64963
197.452	61.20949
197.925	50.64817
198.398	57.55668
198.871	52.94557
199.344	47.97136
199.816	59.03435
200.289	57.31062
200.762	49.81049
201.235	47.11913
201.707	56.12176
202.18	45.84747
202.652	42.43355
203.125	58.6342
203.597	65.90324
204.07	25.13301
204.542	22.2763
205.014	34.77332
205.486	41.85219
205.959	56.79654
206.431	33.32635
206.903	46.48909
207.375	18.37832
207.847	30.87661
208.319	24.85519
208.791	8.25525
209.263	32.81872
209.734	33.08744
210.206	59.08565
210.678	51.34404
211.15	11.10865
211.621	10.27131
212.093	15.69932
212.564	50.37521
213.036	30.08379
213.507	66.88541
213.979	32.9507
214.45	34.92494
214.921	-8.99806
215.392	38.51888
215.864	-3.41799
216.335	27.77421
216.806	32.34853
217.277	22.93197
217.748	35.51942
218.219	62.85229
218.69	29.57883
219.161	-4.54483
219.631	20.18899
220.102	41.85425
220.573	26.55757
221.043	19.22837
221.514	-4.03123
221.985	37.36916
222.455	29.80339
222.926	42.72195
223.396	45.30623
223.866	-7.36693
224.337	40.86406
224.807	49.40756
225.277	21.12442
225.747	3.41804
226.217	39.34752
226.687	39.1261
227.157	31.42112
227.627	11.53689
228.097	37.41576
228.567	54.86171
229.037	30.52886
229.507	31.38102
229.977	-14.28278
230.446	-26.02266
230.916	32.97462
231.386	71.57513
231.855	39.27911
232.325	26.04588
232.794	24.57195
233.263	30.29751
233.733	24.75803
234.202	2.1892
234.671	30.42996
235.14	4.96322
235.61	69.99501
236.079	19.14606
236.548	36.3586
237.017	37.83267
237.486	24.55723
237.955	-14.42982
238.424	26.96283
238.892	61.16021
239.361	28.8834
239.83	32.92325
240.299	46.35823
240.767	31.74333
241.236	35.79878
241.704	19.38473
242.173	39.73989
242.641	25.48636
243.109	44.02332
243.578	39.05648
244.046	1.53827
244.514	59.28664
244.982	42.99515
245.451	29.02847
245.919	15.78697
246.387	21.63729
246.855	40.8093
247.323	18.88616
247.791	45.97274
248.258	36.3591
248.726	47.18663
249.194	32.55441
249.662	78.31046
250.129	7.20574
250.597	52.24677
251.064	41.00054
251.532	34.03838
251.999	1.13617
252.467	59.78921
252.934	19.37586
253.401	-4.08081
253.869	39.38926
254.336	41.85632
254.803	33.60118
255.27	7.36714
255.737	21.29271
256.204	8.44962
256.671	47.51977
257.138	29.08642
257.605	28.06562
258.072	35.89034
258.539	-7.59366
259.005	37.29576
259.472	35.2872
259.939	34.56428
260.405	15.38227
260.872	54.28228
261.338	28.691
261.805	59.84221
262.271	22.37271
262.737	6.4505
263.203	23.6815
263.67	7.33798
264.136	27.00196
264.602	5.88142
265.068	53.48414
265.534	27.11403
266	19.63936
266.466	5.26241
266.932	40.15813
267.398	0
267.864	-3.539
268.329	57.24557
268.795	-9.7207
269.261	86.40537
269.726	52.47026
270.192	61.79359
270.657	29.33026
271.123	6.60248
271.588	23.0751
272.053	52.58592
272.519	-7.57469
272.984	30.8471
273.449	39.79127
273.914	-4.93744
274.379	51.38533
274.844	34.54053
275.309	52.93615
275.774	51.23369
276.239	35.10215
276.704	8.33225
277.169	-8.43223
277.634	27.54715
278.098	-6.05977
278.563	34.24332
279.028	-4.34721
279.492	49.50947
279.957	-28.56634
280.421	62.92568
280.886	30.10365
281.35	55.94828
281.814	40.18183
282.279	2.70232
282.743	54.9951
283.207	49.99526
283.671	21.94844
284.135	-7.84143
284.599	7.14194
285.063	35.70984
285.527	46.45044
285.991	-5.96931
286.455	6.5923
286.919	68.35105
287.382	33.64925
287.846	46.0813
288.31	36.16592
288.773	49.61184
289.237	41.51975
289.7	21.80003
290.164	-1.35115
290.627	54.83415
291.09	55.16816
291.554	9.835
292.017	29.12201
292.48	5.63306
292.943	87.71808
293.406	31.77111
293.869	23.86047
294.332	-17.94545
294.795	57.72728
295.258	-15.47323
295.721	40.99522
296.184	-7.27188
296.646	28.56578
297.109	39.53082
297.572	50.55739
298.034	45.30622
298.497	39.35727
298.959	17.01865
299.422	23.28509
299.884	25.61527
300.346	29.26493
300.809	9.344
301.271	54.11347
301.733	5.9816
302.195	43.47603
302.657	23.99639
303.119	60.23703
303.581	-15.18714
304.043	82.52133
304.505	21.83614
304.967	31.42559
305.429	13.26307
305.891	34.44042
306.352	13.95144
306.814	26.75781
307.275	10.75092
307.737	43.42953
308.198	17.38869
308.66	-2.53124
309.121	17.89198
309.583	57.89107
310.044	16.15036
310.505	74.72187
310.966	0
311.428	61.90084
311.889	28.06562
312.35	32.6488
312.811	21.34536
313.272	-2.08293
313.733	15.99734
314.193	93.07366
314.654	32.11088
315.115	44.82333
315.576	34.40445
316.036	21.18255
316.497	35.41233
316.957	16.81103
317.418	33.6589
317.878	19.99747
318.339	17.85552
318.799	45.78914
319.259	7.31597
319.72	11.2342
320.18	-23.39888
320.64	-0.9998
321.1	17.09074
321.56	19.46552
322.02	39.35726
322.48	26.57923
322.94	9.52202
323.4	28.7196
323.86	-8.44942
324.319	-74.06719
324.779	44.57426
325.239	43.63101
325.698	11.10918
326.158	58.23738
326.617	46.98387
327.077	36.78758
327.536	39.50234
327.996	-35.70488
328.455	41.17321
328.914	11.99843
329.373	25.45248
329.832	16.32388
330.292	32.90794
330.751	52.82497
331.21	23.7267
331.668	36.3581
332.127	38.83729
332.586	34.14087
333.045	48.66698
333.504	-44.43759
333.962	24.99585
334.421	51.94425
334.88	-12.67405
335.338	5.17185
335.797	-6.52111
336.255	40.50256
336.714	52.41324
337.172	24.44116
337.63	15.29194
338.088	14.6762
338.547	57.54205
339.005	37.89031
339.463	52.37681
339.921	-29.08683
340.379	48.31021
340.837	51.9963
341.295	0
341.753	15.6225
342.21	73.07389
342.668	24.76662
343.126	24.50607
343.584	33.32912
344.041	35.04718
344.499	-18.2756
344.956	-8.04448
345.414	54.54168
345.871	49.56687
346.328	19.44222
346.786	30.16758
347.243	19.99747
347.7	9.99858
348.157	27.37765
348.614	25.22108
349.071	34.9982
349.528	42.04121
349.985	25.35716
350.442	33.32964
350.899	28.40555
351.356	21.10814
351.812	25.55217
352.269	63.41087
352.726	28.84194
353.182	48.52605
353.639	21.70109
354.095	6.74046
354.552	34.64894
355.008	1.49234
355.465	-6.77797
355.921	29.86694
356.377	2.29846
356.833	32.07091
357.289	83.89515
357.745	28.03311
358.201	31.67885
358.657	48.5645
359.113	41.22261
359.569	37.94983
360.025	15.64917
360.481	30.2254
360.937	23.89365
361.392	56.38698
361.848	18.56516
362.303	25.49776
362.759	40.63869
363.214	33.32359
363.67	41.97094
364.125	41.06073
364.581	34.93216
365.036	51.29211
365.491	47.98646
365.946	43.75135
366.401	35.84449
366.856	41.77175
367.311	53.07241
367.766	38.05275
368.221	48.59172
368.676	48.03752
369.131	50.26469
369.586	50.15628
370.041	55.50837
370.495	53.77895
370.95	49.44688
371.404	47.33111
371.859	55.97313
372.313	46.85633
372.768	52.88272
373.222	51.81117
373.676	50.89428
374.131	50.503
374.585	54.50605
375.039	49.67222
375.493	53.89264
375.947	48.93169
376.401	51.3672
376.855	51.33029
377.309	53.01426
377.763	51.82785
378.217	53.48421
378.67	54.83087
379.124	54.40161
379.578	52.89955
380.031	54.41786
380.485	53.47441
380.938	52.54196
381.392	53.58808
381.845	54.29421
382.299	52.65206
382.752	51.36083
383.205	51.73096
383.658	51.33463
384.111	52.79409
384.564	53.80261
385.018	51.57745
385.471	52.50015
385.923	54.14718
386.376	53.66068
386.829	53.30532
387.282	53.92642
387.735	53.76729
388.187	53.42377
388.64	54.61477
389.093	53.13043
389.545	52.82646
389.998	52.90407
390.45	54.37134
390.902	54.25502
391.355	53.56709
391.807	53.57222
392.259	54.75534
392.711	53.69335
393.163	53.95299
393.615	54.68585
394.068	53.77262
394.519	53.37611
394.971	53.98156
395.423	53.54968
395.875	54.12203
396.327	54.55946
396.779	53.69928
397.23	53.98678
397.682	54.52602
398.133	54.60183
398.585	54.068
399.036	54.39909
399.488	53.85269
399.939	54.29389
400.39	53.75788
400.842	53.42261
401.293	53.9498
401.744	53.24629
402.195	53.16482
402.646	53.89554
403.097	53.23315
403.548	52.7689
403.999	52.76518
404.45	53.23588
404.9	52.20538
405.351	52.93672
405.802	52.88366
406.253	53.2549
406.703	52.53771
407.154	52.15219
407.604	52.65438
408.055	52.08915
408.505	51.89857
408.955	51.37398
409.406	51.23662
409.856	52.04023
410.306	51.69274
410.756	50.6816
411.206	51.15454
411.656	51.01297
412.106	50.06255
412.556	50.07427
413.006	50.35063
413.456	50.1382
413.905	49.59816
414.355	49.62922
414.805	50.02526
415.254	49.43145
415.704	49.61384
416.153	49.55792
416.603	49.79378
417.052	49.07281
417.502	48.75836
417.951	48.78601
418.4	48.9433
418.849	48.6537
419.298	48.69489
419.748	48.55204
420.197	48.05536
420.646	48.03235
421.094	47.77416
421.543	48.17597
421.992	47.6316
422.441	47.37516
422.89	47.19559
423.338	47.4413
423.787	47.44175
424.236	46.9488
424.684	47.02682
425.133	47.06482
425.581	46.2062
426.029	46.13308
426.478	46.20315
426.926	45.97695
427.374	46.48532
427.822	46.0456
428.27	45.97251
428.718	45.76233
429.166	45.52241
429.614	45.95152
430.062	46.00584
430.51	45.8388
430.958	45.35268
431.406	45.15197
431.853	45.75868
432.301	45.4297
432.749	45.16144
433.196	45.31417
433.644	44.73944
434.091	44.72163
434.538	45.09756
434.986	44.79232
435.433	44.26248
435.88	45.0879
436.327	44.57846
436.775	44.66956
437.222	44.2386
437.669	44.18682
438.116	44.28577
438.563	44.51793
439.009	44.0878
439.456	44.06705
439.903	44.47789
440.35	44.22611
440.796	44.02089
441.243	44.43981
441.689	44.40331
442.136	44.65998
442.582	44.36752
443.029	44.40836
443.475	44.0488
443.921	44.45001
444.368	43.79497
444.814	44.06848
445.26	44.09127
445.706	44.39255
446.152	44.48923
446.598	44.22431
447.044	44.3635
447.49	44.22271
447.936	44.1019
448.381	44.02134
448.827	44.46638
449.273	44.62876
449.718	43.91071
450.164	44.2739
450.61	44.28664
451.055	44.28589
451.5	44.61203
451.946	44.23059
452.391	44.55241
452.836	44.19266
453.282	44.42603
453.727	44.19429
454.172	44.51565
454.617	44.6902
455.062	44.70463
455.507	44.50698
455.952	44.58501
456.396	44.55435
456.841	44.64138
457.286	44.95199
457.731	44.79586
458.175	45.14012
458.62	44.92063
459.064	44.98452
459.509	45.12039
459.953	45.26145
460.398	45.42738
460.842	45.31652
461.286	45.54267
461.73	45.78536
462.174	45.93649
462.619	45.55907
463.063	45.83224
463.507	45.93962
463.951	46.0917
464.394	46.41381
464.838	46.11899
465.282	46.51991
465.726	46.26057
466.17	46.70879
466.613	46.96779
467.057	47.09363
467.5	47.52542
467.944	47.25018
468.387	47.55193
468.831	48.10635
469.274	48.32058
469.717	48.55921
470.16	48.22043
470.603	48.69242
471.047	48.39528
471.49	48.8314
471.933	49.29675
472.376	49.52956
472.818	49.70886
473.261	50.06623
473.704	49.9785
474.147	50.3275
474.59	50.1461
475.032	50.39231
475.475	50.82229
475.917	50.52877
476.36	50.38477
476.802	50.99225
477.245	51.46361
477.687	51.22517
478.129	51.11921
478.571	51.80522
479.013	51.90061
479.456	51.93799
479.898	52.15609
480.34	52.84725
480.782	52.87891
481.224	52.90056
481.665	53.16832
482.107	53.49327
482.549	53.67258
482.991	53.8771
483.432	53.33746
483.874	53.91135
484.315	53.73886
484.757	53.81539
485.198	54.22579
485.64	54.14861
486.081	54.6779
486.522	54.20541
486.963	54.76137
487.405	54.48266
487.846	54.45355
488.287	55.22386
488.728	54.48602
489.169	55.01077
489.61	54.81494
490.05	54.81383
490.491	54.78542
490.932	55.43586
491.373	55.55073
491.813	55.22217
492.254	54.93812
492.694	55.18475
493.135	55.58595
493.575	55.35171
494.016	55.74675
494.456	55.87146
494.896	55.85045
495.336	55.90921
495.777	55.77191
496.217	56.49079
496.657	56.14432
497.097	56.30371
497.537	56.49879
497.977	56.48437
498.416	56.4467
498.856	56.7509
499.296	57.08998
499.736	57.26854
500.175	56.91901
500.615	57.19694
501.054	57.00566
501.494	57.42072
501.933	57.20929
502.373	57.45931
502.812	58.12112
503.251	57.75402
503.69	58.04228
504.129	58.3694
504.569	58.10859
505.008	58.4984
505.447	59.06313
505.886	59.06854
506.324	59.27516
506.763	59.58548
507.202	59.72531
507.641	59.52724
508.079	60.185
508.518	60.43619
508.957	60.45764
509.395	60.99273
509.834	61.20215
510.272	61.41254
510.71	61.86803
511.149	61.66418
511.587	61.98578
512.025	61.55377
512.463	61.90602
512.901	61.94605
513.339	62.25361
513.777	62.91179
514.215	63.81813
514.653	63.07548
515.091	63.45632
515.529	64.08165
515.966	63.69951
516.404	64.13215
516.842	64.31813
517.279	64.37625
517.717	64.3436
518.154	64.81413
518.592	65.53815
519.029	65.69451
519.466	65.97288
519.904	65.89753
520.341	66.00867
520.778	66.65348
521.215	66.76241
521.652	67.1266
522.089	67.46498
522.526	67.20608
522.963	67.23557
523.399	67.31034
523.836	67.93307
524.273	68.10474
524.71	68.3199
525.146	68.96295
525.583	68.56981
526.019	68.83209
526.456	68.78148
526.892	69.34058
527.328	69.46573
527.765	69.38741
528.201	70.06208
528.637	70.06049
529.073	70.66623
529.509	70.58256
529.945	70.58906
530.381	71.01854
530.817	70.60022
531.253	70.96968
531.689	71.65257
532.124	71.58559
532.56	71.86529
532.996	71.80349
533.431	72.0909
533.867	72.76625
534.302	72.83152
534.738	72.93256
535.173	72.95548
535.608	72.75085
536.044	73.47317
536.479	73.88452
536.914	73.70513
537.349	73.33279
537.784	73.70928
538.219	73.54045
538.654	73.99292
539.089	74.31498
539.524	74.12881
539.959	74.1502
540.393	73.81922
540.828	74.85636
541.263	74.90477
541.697	74.40623
542.132	74.80135
542.566	74.98961
543.001	74.86332
543.435	74.78795
543.869	75.25578
544.303	74.43302
544.738	75.35304
545.172	74.83453
545.606	74.90046
546.04	75.18308
546.474	74.88259
546.908	74.6988
547.342	74.59581
547.775	74.89858
548.209	74.6411
548.643	74.09072
549.077	74.60509
549.51	74.87712
549.944	74.533
550.377	75.12393
550.811	74.1892
551.244	74.37298
551.677	73.90605
552.111	73.13604
552.544	73.40962
552.977	73.62021
553.41	73.21923
553.843	72.91593
554.276	72.64002
554.709	72.66371
555.142	72.4503
555.575	72.63582
556.008	72.79702
556.44	72.60138
556.873	71.62361
557.306	72.2258
557.738	72.44032
558.171	71.56084
558.603	71.37406
559.036	71.47251
559.468	71.41501
559.9	70.84742
560.333	70.1007
560.765	70.27541
561.197	70.26851
561.629	70.02874
562.061	69.66788
562.493	69.38928
562.925	69.34316
563.357	69.23804
563.789	68.95274
564.22	68.54065
564.652	68.65476
565.084	68.64991
565.515	68.64903
565.947	68.73556
566.378	68.55077
566.81	68.51109
567.241	67.60037
567.672	67.3004
568.104	67.49138
568.535	67.66023
568.966	66.52582
569.397	66.05076
569.828	66.41876
570.259	66.18647
570.69	65.47235
571.121	65.19892
571.552	64.7585
571.983	64.87934
572.414	64.38451
572.844	63.77243
573.275	63.78834
573.705	63.92765
574.136	63.5767
574.566	63.04871
574.997	62.61983
575.427	62.44854
575.857	61.97526
576.288	61.86384
576.718	61.36056
577.148	61.65222
577.578	61.12398
578.008	60.88037
578.438	60.44793
578.868	60.17364
579.298	60.38992
579.728	60.2187
580.157	60.20379
580.587	59.77613
581.017	59.74438
581.446	58.90755
581.876	59.16071
582.305	58.49165
582.735	58.42948
583.164	58.24428
583.593	57.33
584.023	57.45266
584.452	57.51328
584.881	57.30403
585.31	56.90367
585.739	56.748
586.168	56.32814
586.597	56.43794
587.026	55.95464
587.455	55.86137
587.884	55.60827
588.312	55.45387
588.741	54.88251
589.17	55.25806
589.598	54.97844
590.027	55.02584
590.455	54.71331
590.884	54.6168
591.312	54.33444
591.74	54.13084
592.168	54.15351
592.597	53.72813
593.025	53.24943
593.453	53.32177
593.881	53.16657
594.309	52.84604
594.737	52.39399
595.165	52.23285
595.592	51.67158
596.02	51.42146
596.448	51.84392
596.875	51.25951
597.303	51.12057
597.73	51.05296
598.158	51.19238
598.585	50.69413
599.013	50.48125
599.44	50.40952
599.867	50.52149
600.294	50.19335
600.722	49.7414
601.149	49.60189
601.576	49.99453
602.003	49.51417
602.43	49.30341
602.856	49.35495
603.283	48.89726
603.71	49.16229
604.137	48.90004
604.563	48.67648
604.99	48.85145
605.416	48.71254
605.843	48.01396
606.269	48.08566
606.696	47.90137
607.122	47.75238
607.548	47.07859
607.975	47.26115
608.401	47.08858
608.827	46.78352
609.253	47.03619
609.679	47.24447
610.105	46.75953
610.531	46.57362
610.956	46.74533
611.382	46.69848
611.808	46.4483
612.234	46.05325
612.659	45.92967
613.085	45.84681
613.51	45.6094
613.936	45.71903
614.361	45.73754
614.786	45.7572
615.212	45.56277
615.637	45.3147
616.062	45.93106
616.487	45.24728
616.912	45.85159
617.337	45.73865
617.762	45.81102
618.187	45.20578
618.612	45.00979
619.037	44.82343
619.461	45.17792
619.886	44.99634
620.311	44.97606
620.735	44.78756
621.16	44.82451
621.584	44.49824
622.008	44.72607
622.433	44.78116
622.857	44.76151
623.281	44.97789
623.705	45.10849
624.13	44.6032
624.554	44.89776
624.978	44.71968
625.402	44.72539
625.826	44.67792
626.249	44.5075
626.673	44.51846
627.097	44.47242
627.521	44.86713
627.944	44.67013
628.368	44.66233
628.791	44.75201
629.215	44.49412
629.638	44.34772
630.061	44.64274
630.485	44.47439
630.908	44.74337
631.331	44.90867
631.754	44.36606
632.177	44.81944
632.6	44.603
633.023	44.94513
633.446	44.45218
633.869	45.09315
634.292	45.49476
634.715	45.3255
635.137	44.89592
635.56	45.12416
635.982	45.2984
636.405	45.31916
636.827	45.39027
637.25	45.18529
637.672	45.29993
638.094	45.87368
638.517	45.82952
638.939	45.92357
639.361	46.00558
639.783	46.2375
640.205	46.17492
640.627	46.23497
641.049	45.96723
641.471	46.43642
641.893	46.73118
642.314	46.48028
642.736	46.99319
643.158	47.23135
643.579	46.9161
644.001	46.64888
644.422	47.20655
644.844	47.6915
645.265	47.71377
645.686	47.60581
646.107	48.10154
646.529	48.26174
646.95	48.39089
647.371	48.49218
647.792	48.23553
648.213	48.64045
648.634	48.65733
649.055	48.97262
649.475	49.40084
649.896	49.50426
650.317	49.55378
650.737	49.44957
651.158	49.469
651.578	50.14937
651.999	50.25799
652.419	50.23422
652.84	50.53812
653.26	50.58121
653.68	50.4157
654.1	50.68071
654.521	51.84523
654.941	51.24589
655.361	51.41438
655.781	51.3451
656.2	51.24627
656.62	52.11271
657.04	52.11847
657.46	51.95593
657.879	51.91611
658.299	52.34872
658.719	52.88553
659.138	52.52844
659.558	53.30128
659.977	53.3725
660.396	53.36922
660.816	53.484
661.235	53.35711
661.654	54.29893
662.073	54.31422
662.492	54.54122
662.911	54.68164
663.33	54.3118
663.749	54.7668
664.168	55.13917
664.587	54.64498
665.006	55.5509
665.424	55.78949
665.843	55.40342
666.261	55.63575
666.68	55.58986
667.098	56.55686
667.517	56.44454
667.935	55.92208
668.353	55.66968
668.772	55.32706
669.19	55.61315
669.608	56.17916
670.026	56.01771
670.444	57.04496
670.862	56.42182
671.28	56.35832
671.698	56.42775
672.115	56.96229
672.533	57.23191
672.951	56.8291
673.368	57.0279
673.786	57.08871
674.203	56.78486
674.621	56.77395
675.038	57.01493
675.456	57.15092
675.873	56.83068
676.29	57.41489
676.707	57.24054
677.124	57.09529
677.541	56.83664
677.958	56.63473
678.375	57.04124
678.792	57.19755
679.209	56.76948
679.626	57.03708
680.043	57.29957
680.459	56.72655
680.876	56.64343
681.292	56.92406
681.709	56.86611
682.125	56.64466
682.542	56.51958
682.958	56.517
683.374	56.75228
683.79	56.6119
684.207	56.37713
684.623	56.55295
685.039	56.70139
685.455	56.76425
685.871	55.99793
686.286	56.53953
686.702	56.30568
687.118	56.60389
687.534	56.60335
687.949	56.01701
688.365	56.22687
688.781	56.05768
689.196	55.28382
689.611	55.2827
690.027	55.63815
690.442	54.60838
690.857	55.18253
691.273	54.30304
691.688	54.75934
692.103	54.61013
692.518	54.04664
692.933	54.46076
693.348	54.09279
693.763	53.4986
694.177	53.39026
694.592	53.7002
695.007	52.82005
695.421	52.52822
695.836	52.47635
696.25	51.82113
696.665	51.56368
697.079	51.65225
697.494	51.91414
697.908	51.32094
698.322	51.63947
698.736	50.84518
699.151	50.8725
699.565	50.74669
699.979	50.90403
700.393	50.4957
700.806	50.41628
701.22	50.42443
701.634	49.62745
702.048	49.70788
702.461	49.55601
702.875	49.50523
703.289	49.00459
703.702	49.27412
704.116	48.81987
704.529	49.56805
704.942	48.67289
705.356	48.54868
705.769	48.35126
706.182	48.48132
706.595	47.8999
707.008	47.4531
707.421	46.91027
707.834	46.51236
708.247	46.55057
708.66	46.25697
709.072	46.38912
709.485	45.68783
709.898	45.70362
710.31	45.22794
710.723	45.45383
711.135	44.72183
711.548	44.52669
711.96	43.83169
712.373	44.10121
712.785	43.34609
713.197	43.221
713.609	42.48421
714.021	42.30978
714.433	42.05494
714.845	42.21553
715.257	41.41466
715.669	41.81945
716.081	40.97888
716.493	40.84884
716.904	40.41025
717.316	40.193
717.727	40.40788
718.139	39.99462
718.55	39.33286
718.962	39.36747
719.373	38.93553
719.784	38.93263
720.196	38.59626
720.607	38.51247
721.018	38.40474
721.429	37.65261
721.84	37.7087
722.251	37.33866
722.662	37.12971
723.073	36.65057
723.483	36.63003
723.894	36.20531
724.305	36.04076
724.715	35.59548
725.126	35.58089
725.536	35.18629
725.947	35.11817
726.357	34.99218
726.768	34.86816
727.178	34.44979
727.588	34.02128
727.998	33.77223
728.408	33.44764
728.818	33.36624
729.228	33.3384
729.638	33.12104
730.048	33.10439
730.458	33.33575
730.868	32.60475
731.277	32.40716
731.687	32.37825
732.097	32.42096
732.506	31.82216
732.916	31.81567
733.325	31.70092
733.734	32.08984
734.144	31.25023
734.553	31.11926
734.962	30.64794
735.371	30.86236
735.78	30.42138
736.189	30.45163
736.598	29.859
737.007	30.38357
737.416	29.5964
737.825	30.01305
738.233	29.33858
738.642	29.48269
739.051	29.20582
739.459	29.37907
739.868	29.19194
740.276	29.00411
740.684	28.76023
741.093	28.68983
741.501	28.44984
741.909	28.62253
742.317	28.35059
742.725	28.01709
743.133	28.30519
743.541	27.5294
743.949	28.11827
744.357	27.66675
744.765	28.08623
745.173	27.3014
745.58	27.90753
745.988	27.23601
746.396	27.40749
746.803	27.0694
747.211	27.14468
747.618	27.03128
748.025	26.99526
748.433	26.5826
748.84	26.39439
749.247	26.46535
749.654	26.46673
750.061	26.80891
750.468	25.55106
750.875	26.12341
751.282	25.75614
751.689	25.92563
752.096	25.85107
752.502	25.73212
752.909	25.55267
753.316	25.60166
753.722	25.95188
754.129	25.35554
754.535	25.55477
754.941	25.09892
755.348	25.51877
755.754	25.33079
756.16	25.20605
756.566	24.56587
756.972	24.81625
757.378	24.22685
757.784	24.8692
758.19	24.73245
758.596	24.20854
759.002	24.71045
759.408	24.19001
759.813	24.58204
760.219	24.27686
760.624	24.62852
761.03	24.15096
761.435	24.47383
761.841	23.65767
762.246	23.70204
762.651	23.94378
763.057	23.51668
763.462	24.59644
763.867	24.01324
764.272	24.62358
764.677	24.70375
765.082	24.46016
765.487	24.21113
765.892	24.09922
766.296	24.31147
766.701	23.44392
767.106	24.39223
767.51	23.83714
767.915	23.98244
768.319	23.91441
768.724	24.30738
769.128	24.13521
769.532	23.68507
769.936	23.94419
770.341	23.12764
770.745	24.17069
771.149	23.39388
771.553	23.48795
771.957	23.63154
772.361	23.28406
772.764	23.80843
773.168	23.29654
773.572	23.83062
773.976	23.28775
774.379	23.3396
774.783	23.18533
775.186	22.86444
775.59	23.15514
775.993	22.69656
776.396	23.54366
776.8	23.14413
777.203	22.76889
777.606	22.95004
778.009	22.89973
778.412	23.3071
778.815	22.89406
779.218	23.50606
779.621	22.64255
780.023	22.98926
780.426	22.85808
780.829	22.94496
781.231	23.0715
781.634	22.63689
782.036	23.35481
782.439	22.95403
782.841	22.62262
783.244	23.16741
783.646	22.74517
784.048	22.99124
784.45	22.50678
784.852	22.75969
785.254	22.63998
785.656	22.73802
786.058	22.93116
786.46	21.79203
786.862	22.3592
787.264	22.45055
787.665	22.54865
788.067	22.90782
788.468	22.25058
788.87	23.00036
789.271	22.61384
789.673	23.05421
790.074	22.85073
790.475	22.66082
790.877	23.35059
791.278	22.32901
791.679	22.61607
792.08	22.58745
792.481	22.4334
792.882	22.87246
793.283	22.24142
793.683	22.67313
794.084	22.28291
794.485	22.4924
794.886	22.88573
795.286	22.11757
795.687	23.31927
796.087	22.41653
796.487	22.4608
796.888	22.67457
797.288	22.47818
797.688	22.93805
798.088	22.38981
798.489	22.35164
798.889	22.93608
799.289	22.12977
799.689	23.0925
800.088	22.28823
800.488	22.67258
800.888	23.30924
801.288	22.82547
801.687	22.69135
802.087	23.03286
802.486	22.64628
802.886	22.97202
803.285	22.51365
803.685	23.0839
804.084	22.34406
804.483	22.5791
804.882	23.02149
805.281	22.85161
805.68	23.24083
806.079	22.48818
806.478	22.98596
806.877	23.53605
807.276	22.93427
807.675	23.34807
808.074	22.78547
808.472	23.01935
808.871	23.36515
809.269	22.46771
809.668	22.55185
810.066	23.07391
810.465	22.42074
810.863	23.0407
811.261	22.78659
811.659	22.79996
812.057	23.44679
812.455	23.20234
812.853	22.6462
813.251	23.02492
813.649	22.59596
814.047	23.1924
814.445	22.85079
814.843	22.80881
815.24	22.78733
815.638	22.80306
816.035	22.76977
816.433	22.68732
816.83	22.59472
817.228	23.19403
817.625	22.55752
818.022	22.79825
818.419	22.83174
818.816	22.69164
819.213	22.96426
819.61	22.76043
820.007	23.23913
820.404	23.46887
820.801	23.171
821.198	23.61238
821.595	23.63053
821.991	23.39226
822.388	24.29819
822.784	24.18776
823.181	24.62488
823.577	25.05979
823.974	24.68679
824.37	24.96557
824.766	24.55125
825.162	24.47758
825.558	24.42561
825.954	23.765
826.35	23.95598
826.746	24.67603
827.142	24.17468
827.538	24.85735
827.934	24.81326
828.33	24.39438
828.725	24.63108
829.121	24.21683
829.516	23.76283
829.912	24.31453
830.307	23.98686
830.703	23.68635
831.098	23.99075
831.493	23.2082
831.888	23.83068
832.283	23.39436
832.678	23.01686
833.073	23.57833
833.468	23.55827
833.863	23.57095
834.258	24.1955
834.653	23.97514
835.048	24.04471
835.442	24.47338
835.837	24.13404
836.231	24.55096
836.626	24.14245
837.02	24.56368
837.415	24.01722
837.809	23.59966
838.203	24.05739
838.597	23.98158
838.991	22.876
839.385	23.67388
839.779	24.06548
840.173	24.0512
840.567	24.5134
840.961	24.63389
841.355	24.02578
841.748	24.50623
842.142	24.21646
842.536	24.01048
842.929	24.93405
843.323	24.21066
843.716	24.42616
844.109	24.98128
844.503	24.64318
844.896	23.91128
845.289	24.75118
845.682	24.53047
846.075	23.93318
846.468	24.75716
846.861	24.91995
847.254	25.04108
847.647	25.19885
848.04	25.05207
848.432	24.77337
848.825	24.52372
849.217	24.27216
849.61	24.90406
850.002	25.0826
850.395	24.04744
850.787	24.86807
851.179	24.39818
851.572	25.59624
851.964	25.039
852.356	25.04162
852.748	24.53682
853.14	24.59958
853.532	24.91
853.924	24.16275
854.315	24.66055
854.707	24.56591
855.099	25.18076
855.491	24.80791
855.882	24.32687
856.274	24.45618
856.665	24.30103
857.056	24.55532
857.448	25.16357
857.839	24.9452
858.23	25.21746
858.621	24.77042
859.012	25.2723
859.403	23.95963
859.794	25.2339
860.185	25.15648
860.576	23.97744
860.967	25.5992
861.358	24.44812
861.748	24.7194
862.139	24.51176
862.529	24.80405
862.92	24.56261
863.31	24.78227
863.701	25.42071
864.091	24.3689
864.481	25.22393
864.872	25.62796
865.262	24.87319
865.652	25.75552
866.042	24.94826
866.432	24.20745
866.822	25.14904
867.211	25.3535
867.601	24.54539
867.991	25.37422
868.381	24.82309
868.77	24.72815
869.16	25.09771
869.549	25.24339
869.939	24.27213
870.328	25.13336
870.717	25.54172
871.106	24.32559
871.496	24.35002
871.885	25.03695
872.274	24.37152
872.663	25.76334
873.052	24.58914
873.441	24.58053
873.829	25.09072
874.218	24.68546
874.607	24.59452
874.996	24.46411
875.384	25.54602
875.773	24.52387
876.161	24.48724
876.549	24.60601
876.938	24.08228
877.326	24.28335
877.714	25.02724
878.102	24.21424
878.491	24.05586
878.879	24.4172
879.267	24.29742
879.655	24.15959
880.042	25.08956
880.43	24.93725
880.818	24.55656
881.206	25.20842
881.593	25.3966
881.981	25.02386
882.368	25.60943
882.756	25.76924
883.143	25.0282
883.53	25.17577
883.918	25.20598
884.305	24.62954
884.692	25.19501
885.079	25.10788
885.466	24.89834
885.853	24.9019
886.24	25.0097
886.627	24.60139
887.014	24.0726
887.4	24.69444
887.787	25.06404
888.174	24.26514
888.56	24.7445
888.947	25.09145
889.333	23.94024
889.719	24.20113
890.106	24.44592
890.492	24.3731
890.878	24.47344
891.264	24.75488
891.65	24.21744
892.036	24.06449
892.422	24.72236
892.808	24.09438
893.194	23.4144
893.58	24.69184
893.965	24.42797
894.351	23.79804
894.736	24.30331
895.122	24.4038
895.507	24.24951
895.893	24.00287
896.278	24.26759
896.663	24.32067
897.049	24.36602
897.434	23.81146
897.819	23.92477
898.204	23.93214
898.589	24.34207
898.974	24.4112
899.359	24.19119
899.743	23.66844
900.128	24.50977
900.513	23.89232
900.897	23.75049
901.282	23.94623
901.667	23.37458
902.051	23.63148
902.435	23.79902
902.82	23.37394
903.204	22.88621
903.588	23.58385
903.972	23.80323
904.356	23.44071
904.74	23.89724
905.124	24.6027
905.508	23.7614
905.892	23.69293
906.276	24.3754
906.659	24.1267
907.043	23.95212
907.427	23.45094
907.81	24.47748
908.194	23.56337
908.577	23.46306
908.96	24.31734
909.344	23.74263
909.727	24.04364
910.11	24.27
910.493	24.56712
910.876	23.84273
911.259	23.83217
911.642	24.41883
912.025	23.34376
912.408	23.11279
912.79	23.64135
913.173	23.1235
913.556	22.83101
913.938	23.37857
914.321	24.01215
914.703	23.3782
915.086	23.3993
915.468	24.06801
915.85	23.37792
916.232	23.30938
916.614	23.58875
916.996	24.12338
917.378	22.86239
917.76	23.48919
918.142	23.74136
918.524	23.97502
918.906	23.60132
919.288	23.82764
919.669	24.255
920.051	23.51491
920.432	23.07817
920.814	24.16018
921.195	23.84661
921.577	23.25188
921.958	23.53989
922.339	23.2522
922.72	22.88951
923.101	24.29275
923.482	24.06255
923.863	23.68218
924.244	23.80263
924.625	23.89593
925.006	23.68904
925.387	23.79854
925.767	23.26856
926.148	23.28729
926.528	23.31749
926.909	23.05791
927.289	23.15571
927.67	23.39908
928.05	23.85732
928.43	23.14638
928.81	23.50211
929.191	23.6559
929.571	22.54534
929.951	23.38082
930.331	23.30647
930.71	23.44537
931.09	24.16178
931.47	24.65408
931.85	23.78323
932.229	22.55138
932.609	23.76325
932.988	23.12595
933.368	22.42192
933.747	22.50625
934.127	23.90081
934.506	23.27151
934.885	22.42757
935.264	23.24853
935.643	22.97941
936.022	22.96814
936.401	23.00571
936.78	23.15335
937.159	23.97452
937.538	21.95971
937.916	22.01204
938.295	22.79636
938.674	23.34873
939.052	23.59878
939.431	23.71031
939.809	22.11865
940.187	23.42471
940.566	23.73071
940.944	23.14431
941.322	22.19909
941.7	21.73388
942.078	22.59811
942.456	24.11138
942.834	22.98739
943.212	22.53728
943.59	21.91684
943.968	21.19423
944.345	19.69454
944.723	22.34931
945.1	22.48095
945.478	22.43189
945.855	22.60766
946.233	21.95803
946.61	21.68064
946.987	22.51739
947.365	21.06134
947.742	22.67571
948.119	22.14321
948.496	21.56873
948.873	20.71592
949.25	22.67613
949.626	22.32426
950.003	21.68511
950.38	20.7962
950.756	21.62024
951.133	21.13908
951.51	21.66748
951.886	20.61497
952.262	22.7263
952.639	22.09416
953.015	21.0253
953.391	20.14094
953.767	20.28363
954.143	20.38165
954.519	18.52099
954.895	20.18947
955.271	21.93442
955.647	19.44989
956.023	18.96499
956.399	21.58701
956.774	21.13821
957.15	20.51354
957.525	20.12927
957.901	18.97187
958.276	19.3659
958.652	20.05276
959.027	20.69457
959.402	20.05762
959.777	19.17327
960.152	20.56798
960.527	20.89683
960.902	20.25829
961.277	20.07473
961.652	20.4661
962.027	19.52069
962.402	20.06299
962.776	19.58858
963.151	19.7233
963.525	18.76148
963.9	21.82991
964.274	22.55305
964.649	19.87956
965.023	19.18054
965.397	21.03049
965.771	20.3674
966.146	20.71821
966.52	19.60202
966.894	20.13564
967.268	21.29992
967.641	19.35712
968.015	20.23515
968.389	19.70599
968.763	19.53508
969.136	20.04283
969.51	21.05805
969.883	21.06785
970.257	20.47331
970.63	21.57977
971.003	19.40048
971.377	21.26141
971.75	19.39554
972.123	21.05594
972.496	20.67327
972.869	20.04288
973.242	21.36246
973.615	19.71732
973.988	18.58278
974.36	19.37334
974.733	20.2427
975.106	18.6108
975.478	20.58093
975.851	20.64615
976.223	19.24394
976.596	17.81629
976.968	20.12232
977.34	19.81289
977.712	19.82398
978.085	18.18205
978.457	19.70212
978.829	20.75288
979.201	18.60118
979.573	18.56767
979.944	19.3684
980.316	19.98427
980.688	19.40145
981.059	20.65806
981.431	18.32528
981.803	19.69728
982.174	20.96528
982.545	19.33747
982.917	20.64461
983.288	18.98347
983.659	20.18064
984.03	18.02168
984.401	20.02438
984.772	19.2281
985.143	17.81908
985.514	19.96595
985.885	17.16853
986.256	19.82403
986.627	18.46054
986.997	17.98331
987.368	19.18092
987.738	19.29589
988.109	18.70566
988.479	17.84092
988.85	18.71375
989.22	18.85368
989.59	18.882
989.96	17.68855
990.33	18.36812
990.7	18.632
991.07	18.32353
991.44	17.8493
991.81	17.48775
992.18	18.25639
992.549	19.60371
992.919	20.0665
993.289	17.5562
993.658	19.60255
994.028	19.37888
994.397	19.84792
994.766	18.13233
995.136	19.50965
995.505	19.10761
995.874	21.25015
996.243	18.82704
996.612	20.47536
996.981	17.61573
997.35	19.80265
997.719	18.82547
998.088	21.6812
998.456	18.19513
998.825	21.34885
999.194	17.64239
999.562	18.42964
999.931	19.55467
1000.299	17.71388
1000.667	19.87872
1001.036	18.89568
1001.404	15.72404
1001.772	22.47272
1002.14	19.18701
1002.508	22.15795
1002.876	20.16736
1003.244	22.42744
1003.612	19.41512
1003.98	25.03184
1004.347	19.4287
1004.715	17.56923
1005.083	21.00688
1005.45	19.86098
1005.818	19.39699
1006.185	19.45419
1006.552	19.85926
1006.92	20.91619
1007.287	20.91914
1007.654	18.83664
1008.021	19.32988
1008.388	19.94
1008.755	17.00589
1009.122	21.29536
1009.489	18.93767
1009.856	16.87103
1010.222	20.00367
1010.589	16.14575
1010.956	19.59211
1011.322	16.53767
1011.689	19.76239
1012.055	14.63824
1012.421	20.21767
1012.788	15.05937
1013.154	20.35229
1013.52	20.87407
1013.886	16.60581
1014.252	18.38319
1014.618	14.85994
1014.984	17.68253
1015.35	18.03376
1015.716	21.01216
1016.081	18.1088
1016.447	20.14534
1016.813	20.15846
1017.178	21.51816
1017.544	17.8299
1017.909	19.32402
1018.274	23.43997
1018.64	16.52829
1019.005	16.87805
1019.37	20.44989
1019.735	16.2497
1020.1	12.64294
1020.465	15.48804
1020.83	14.76663
1021.195	11.70882
1021.56	24.93903
1021.924	19.50585
1022.289	11.06496
1022.654	14.79947
1023.018	15.54328
1023.383	16.08127
1023.747	23.44329
1024.111	18.19891
1024.476	22.21994
1024.84	13.91541
1025.204	21.30984
1025.568	5.13938
1025.932	17.82167
1026.296	20.95413
1026.66	16.68721
1027.024	15.37232
1027.387	13.87204
1027.751	14.0583
1028.115	27.60982
1028.478	24.41682
1028.842	20.17993
1029.205	18.57064
1029.569	12.19077
1029.932	16.07255
1030.295	11.92453
1030.659	-1.50634
1031.022	16.56862
1031.385	21.664
1031.748	17.16458
1032.111	14.73584
1032.474	7.02631
1032.836	19.52525
1033.199	12.55719
1033.562	14.62508
1033.924	12.69017
1034.287	28.04565
1034.65	8.13089
1035.012	12.62633
1035.374	34.44709
1035.737	19.06463
1036.099	21.02612
1036.461	17.62049
1036.823	2.59194
1037.185	17.07177
1037.547	8.57618
1037.909	12.45419
1038.271	26.53565
1038.633	17.45747
1038.995	13.11781
1039.356	14.53181
1039.718	12.36492
1040.08	9.25999
1040.441	24.45783
1040.803	18.87249
1041.164	3.27101
1041.525	18.01296
1041.886	-5.96764
1042.248	22.92306
1042.609	21.72987
1042.97	21.83314
1043.331	15.6068
1043.692	12.49499
1044.053	19.28949
1044.413	6.04561
1044.774	25.73615
1045.135	4.28996
1045.495	10.79526
1045.856	22.31822
1046.216	11.59002
1046.577	10.80658
1046.937	9.88069
1047.298	-2.34641
