Data from 1014water-6_Reflection__9__23-50-08-302.txt Node

Date: Tue Oct 14 23:50:08 AST 2025
User: lin
Spectrometer: SR600411
Trigger mode: 0
Integration Time (sec): 5.910000E-2
Scans to average: 5
Nonlinearity correction enabled: true
Boxcar width: 0
Storing dark spectrum: false
XAxis mode: Wavelengths
Number of Pixels in Spectrum: 2048
>>>>>Begin Spectral Data<<<<<
187.982	46.71363
188.456	43.69059
188.93	36.85103
189.403	43.93377
189.877	34.55705
190.351	39.01769
190.825	31.39466
191.298	33.32334
191.772	41.54736
192.246	21.74692
192.719	36.4628
193.193	25.22566
193.666	16.736
194.139	33.46614
194.613	24.48889
195.086	35.15888
195.559	33.97338
196.033	49.21475
196.506	45.21964
196.979	46.61174
197.452	45.01898
197.925	46.43014
198.398	46.54561
198.871	49.98235
199.344	37.73128
199.816	43.05824
200.289	43.01077
200.762	51.14138
201.235	19.63587
201.707	32.32812
202.18	9.02974
202.652	9.78772
203.125	1.88621
203.597	56.4822
204.07	-13.76385
204.542	-4.80666
205.014	4.41063
205.486	-8.44813
205.959	21.01396
206.431	4.71604
206.903	46.42306
207.375	1.59961
207.847	39.40374
208.319	15.78598
208.791	-51.17763
209.263	29.45207
209.734	13.84309
210.206	-82.17019
210.678	0
211.15	-8.99806
211.621	-24.99457
212.093	6.10539
212.564	-90.30155
213.036	9.18206
213.507	2.325
213.979	-15.73685
214.45	-22.46707
214.921	14.0467
215.392	-24.56914
215.864	-9.78066
216.335	-11.23376
216.806	-54.53447
217.277	20.42712
217.748	31.45688
218.219	-12.61847
218.69	-99.98063
219.161	-14.28323
219.631	-30.58153
220.102	15.42792
220.573	-23.16611
221.043	-34.03408
221.514	-34.44289
221.985	-49.26533
222.455	-4.87681
222.926	-34.6082
223.396	-35.94646
223.866	-10.97363
224.337	-10.80818
224.807	-28.72927
225.277	2.53126
225.747	-28.56482
226.217	-1.72374
226.687	-24.99481
227.157	20.78879
227.627	5.21627
228.097	-35.43554
228.567	-1.86876
229.037	-67.6868
229.507	17.81886
229.977	10.8678
230.446	3.99962
230.916	-5.17117
231.386	-36.46224
231.855	-77.34413
232.325	-22.03076
232.794	-56.08339
233.263	-18.17761
233.733	17.68857
234.202	-47.42511
234.671	-31.02748
235.14	-64.77375
235.61	-76.10165
236.079	-31.81089
236.548	-24.2385
237.017	-16.48006
237.486	-67.72802
237.955	-72.39948
238.424	-4.76066
238.892	-12.98478
239.361	-57.73369
239.83	-1.16259
240.299	-18.84706
240.767	-138.06796
241.236	-31.02749
241.704	-53.93491
242.173	-17.10225
242.641	-48.47546
243.109	25.20565
243.578	-16.92054
244.046	-115.59349
244.514	-49.30445
244.982	-16.92053
245.451	-107.66931
245.919	6.30501
246.387	-85.69665
246.855	-14.11494
247.323	-19.76342
247.791	-3.66891
248.258	-8.60043
248.726	-63.32108
249.194	-23.80586
249.662	3.07654
250.129	-17.43838
250.597	-67.551
251.064	-18.6009
251.532	-70.81613
251.999	-93.85993
252.467	-63.36578
252.934	-8.06345
253.401	-53.41287
253.869	-4.99917
254.336	27.95329
254.803	-70.16201
255.27	10.63653
255.737	-2.94077
256.204	-57.7337
256.671	-87.28124
257.138	-29.5388
257.605	-145.96449
258.072	-66.20014
258.539	-53.61195
259.005	12.49827
259.472	-33.32727
259.939	33.82052
260.405	-33.32912
260.872	-5.19397
261.338	-113.70098
261.805	8.03408
262.271	-110.61666
262.737	8.5698
263.203	-7.89282
263.67	-97.98082
264.136	-3.66891
264.602	-41.16671
265.068	-94.98536
265.534	-18.74789
266	-176.7026
266.466	-40.90157
266.932	-116.64568
267.398	-86.13325
267.864	-36.979
268.329	-9.52251
268.795	-244.77925
269.261	-55.06082
269.726	-55.37356
270.192	-36.24218
270.657	11.10988
271.123	-28.148
271.588	-18.36524
272.053	-13.57777
272.519	17.38934
272.984	-103.42415
273.449	-121.41369
273.914	-23.90766
274.379	-13.7904
274.844	-5.47862
275.309	-19.99668
275.774	-57.43841
276.239	0
276.704	0
277.169	-27.16763
277.634	-32.52304
278.098	-23.59038
278.563	-70.57609
279.028	-16.46736
279.492	-53.32606
279.957	27.86643
280.421	-60.45687
280.886	11.99791
281.35	-30.58152
281.814	-46.20259
282.279	-59.74064
282.743	23.75876
283.207	-99.98539
283.671	-11.93853
284.135	-47.21232
284.599	-59.98862
285.063	-19.66929
285.527	-64.69155
285.991	-54.3402
286.455	-53.56232
286.919	-96.14416
287.382	-38.22819
287.846	-49.98844
288.31	-6.38172
288.773	-99.98656
289.237	-99.97469
289.7	-19.39992
290.164	-16.43559
290.627	-58.61003
291.09	-26.24476
291.554	-84.72751
292.017	-265.33486
292.48	-3.94675
292.943	-13.33199
293.406	21.15213
293.869	-12.61847
294.332	-114.262
294.795	-14.63143
295.258	-53.72042
295.721	-77.07039
296.184	-117.62122
296.646	-55.72724
297.109	2.06147
297.572	-478.4948
298.034	7.99891
298.497	-57.43841
298.959	-1466.53043
299.422	-58.68718
299.884	-95.33301
300.346	-79.98578
300.809	-70.26153
301.271	-62.80473
301.733	19.17584
302.195	-71.41503
302.657	-26.03544
303.119	-66.21701
303.581	-229.58928
304.043	-6.94339
304.505	-1.0099
304.967	-26.91781
305.429	-1.94134
305.891	11.76331
306.352	-40.31564
306.814	-17.2807
307.275	5.79636
307.737	6.57802
308.198	-19.47698
308.66	-74.22556
309.121	-62.14742
309.583	-53.83977
310.044	-103.43621
310.505	-13.90944
310.966	-25.42001
311.428	-14.03328
311.889	-47.68325
312.35	1.36967
312.811	-218.15163
313.272	-176.88537
313.733	-13.68129
314.193	1219.46924
314.654	-101.51219
315.115	-97.42107
315.576	-136.70336
316.036	-78.44356
316.497	-290.85967
316.957	-599.9419
317.418	-227.24036
317.878	-71.41671
318.339	-45.70967
318.799	-8.53508
319.259	-4.76108
319.72	-18.74648
320.18	16.94751
320.64	-123.31701
321.1	11.11006
321.56	-43.09638
322.02	-44.89165
322.48	-46.05558
322.94	-176.89789
323.4	-47.99298
323.86	-35.70624
324.319	-736.22982
324.779	-10.22531
325.239	-15.93951
325.698	-5.88131
326.158	19.1475
326.617	-12.27915
327.077	-97.60303
327.536	-47.72114
327.996	-11.39042
328.455	-37.49185
328.914	-67.91258
329.373	16.66485
329.832	-20.92593
330.292	-40.84963
330.751	-85.27291
331.21	-114.98047
331.668	-10.41449
332.127	9.99804
332.586	-47.26516
333.045	-4.347
333.504	-144.648
333.962	-108.92509
334.421	-319.96012
334.88	-74.45603
335.338	-74.98755
335.797	0
336.255	-60.30541
336.714	-38.13423
337.172	34.18283
337.63	-30.60837
338.088	0.92573
338.547	-107.90857
339.005	-48.18105
339.463	-31.47265
339.921	-10.44624
340.379	-102.02084
340.837	-32.04476
341.295	-66.65415
341.753	-41.81174
342.21	-119.97129
342.668	-26.31204
343.126	-35.70759
343.584	-36.13651
344.041	-31.45341
344.499	-38.45334
344.956	32.07319
345.414	-2.70209
345.871	-117.75499
346.328	-49.99023
346.786	-62.48876
347.243	-143.96528
347.7	-87.28125
348.157	-33.32859
348.614	5.71354
349.071	6.75584
349.528	-1533.18474
349.985	15.5706
350.442	-61.5257
350.899	5.79636
351.356	-23.99559
351.812	-9.67547
352.269	6.05949
352.726	-79.98863
353.182	-17.5787
353.639	-49.98756
354.095	-14.28323
354.552	-26.46609
355.008	-50.83853
355.465	37.67796
355.921	-7.95305
356.377	2.22184
356.833	-36.6127
357.289	14.4558
357.745	-41.29374
358.201	-34.71557
358.657	-17.16778
359.113	-39.98894
359.569	-1.05243
360.025	8.8412
360.481	-10.1828
360.937	-8.33184
361.392	33.32701
361.848	15.99669
362.303	18.93539
362.759	25.68397
363.214	47.33401
363.67	24.47216
364.125	14.47424
364.581	36.1097
365.036	30.1939
365.491	25.99698
365.946	34.42007
366.401	26.63302
366.856	40.6813
367.311	32.50125
367.766	40.09267
368.221	34.94285
368.676	45.13304
369.131	43.07073
369.586	41.49977
370.041	49.50805
370.495	42.35436
370.95	51.53112
371.404	46.19814
371.859	40.3675
372.313	51.25827
372.768	47.14144
373.222	50.00267
373.676	51.30337
374.131	50.38894
374.585	49.46743
375.039	53.24524
375.493	51.87791
375.947	54.88238
376.401	54.3313
376.855	52.53788
377.309	57.10018
377.763	54.11629
378.217	52.88989
378.67	53.20432
379.124	51.64572
379.578	50.41589
380.031	55.63683
380.485	52.57097
380.938	55.59862
381.392	53.47951
381.845	53.26818
382.299	55.04245
382.752	55.74608
383.205	55.0357
383.658	55.44
384.111	55.56111
384.564	53.71104
385.018	56.55174
385.471	54.57553
385.923	54.45623
386.376	56.11082
386.829	55.99278
387.282	57.42116
387.735	56.27324
388.187	57.43808
388.64	56.96541
389.093	56.6418
389.545	58.74767
389.998	56.66642
390.45	56.52362
390.902	56.31181
391.355	56.95212
391.807	59.55009
392.259	58.36276
392.711	57.78786
393.163	57.92398
393.615	57.45016
394.068	57.46995
394.519	58.22362
394.971	57.95058
395.423	57.39187
395.875	58.35088
396.327	57.85481
396.779	57.05684
397.23	57.54117
397.682	58.15347
398.133	58.15133
398.585	57.68242
399.036	57.73746
399.488	57.19827
399.939	57.7717
400.39	57.50924
400.842	57.47293
401.293	56.77696
401.744	57.15532
402.195	57.01774
402.646	57.10962
403.097	57.12404
403.548	57.65624
403.999	57.27809
404.45	57.22223
404.9	56.59034
405.351	56.43311
405.802	56.94913
406.253	56.17435
406.703	56.04721
407.154	56.62567
407.604	56.48124
408.055	56.03086
408.505	56.16691
408.955	55.58759
409.406	55.69775
409.856	55.05765
410.306	55.28744
410.756	55.02635
411.206	54.91211
411.656	54.4104
412.106	55.17557
412.556	53.71896
413.006	54.48306
413.456	54.13226
413.905	53.23282
414.355	53.32204
414.805	54.15447
415.254	53.93669
415.704	53.29668
416.153	52.78123
416.603	53.02451
417.052	52.76346
417.502	53.08782
417.951	52.46253
418.4	51.96657
418.849	52.55829
419.298	51.8417
419.748	52.18405
420.197	52.63276
420.646	51.16464
421.094	51.71716
421.543	50.91902
421.992	51.62129
422.441	51.34307
422.89	51.25112
423.338	50.74623
423.787	50.94754
424.236	50.80366
424.684	50.25458
425.133	50.2266
425.581	49.80929
426.029	49.86224
426.478	49.92534
426.926	49.84254
427.374	49.74938
427.822	49.78339
428.27	49.27059
428.718	49.06646
429.166	49.12117
429.614	48.58743
430.062	48.91389
430.51	48.74817
430.958	48.25947
431.406	49.04928
431.853	49.1516
432.301	48.1452
432.749	48.83393
433.196	48.79251
433.644	48.53739
434.091	48.19112
434.538	48.06143
434.986	48.08091
435.433	47.50988
435.88	47.08455
436.327	47.50522
436.775	47.92241
437.222	47.78919
437.669	47.33433
438.116	47.09755
438.563	47.53949
439.009	47.26116
439.456	47.13066
439.903	47.19132
440.35	46.69951
440.796	47.10495
441.243	47.2605
441.689	47.07206
442.136	47.31378
442.582	47.10961
443.029	46.82297
443.475	46.99785
443.921	47.11238
444.368	46.96817
444.814	47.27708
445.26	47.5297
445.706	47.57844
446.152	47.44483
446.598	47.11768
447.044	47.07606
447.49	47.35751
447.936	47.42111
448.381	47.07583
448.827	47.45177
449.273	47.26321
449.718	47.56858
450.164	47.11236
450.61	47.18529
451.055	47.23438
451.5	47.47498
451.946	47.58854
452.391	47.33442
452.836	47.48335
453.282	47.75088
453.727	47.33302
454.172	47.40044
454.617	47.52955
455.062	47.25133
455.507	47.46276
455.952	47.62993
456.396	47.46423
456.841	47.75757
457.286	47.79718
457.731	47.67105
458.175	47.88181
458.62	48.21205
459.064	47.98394
459.509	47.65117
459.953	48.33063
460.398	48.12182
460.842	48.16578
461.286	48.68204
461.73	48.26094
462.174	48.581
462.619	49.15248
463.063	48.51232
463.507	48.77116
463.951	48.71767
464.394	48.99059
464.838	49.18253
465.282	48.9591
465.726	49.75577
466.17	49.89067
466.613	50.09867
467.057	50.03953
467.5	50.12089
467.944	50.66257
468.387	51.04887
468.831	50.9486
469.274	51.38927
469.717	51.64467
470.16	52.23943
470.603	52.29453
471.047	52.1173
471.49	52.95597
471.933	52.84533
472.376	52.89717
472.818	52.75934
473.261	53.29247
473.704	53.24159
474.147	53.32663
474.59	53.85693
475.032	54.09498
475.475	54.08942
475.917	54.2294
476.36	54.72035
476.802	54.79331
477.245	55.12529
477.687	55.16945
478.129	55.21155
478.571	55.53946
479.013	55.62511
479.456	55.50554
479.898	55.85001
480.34	56.31937
480.782	56.6358
481.224	56.76653
481.665	56.91374
482.107	57.05796
482.549	57.43274
482.991	57.71642
483.432	57.44075
483.874	57.82741
484.315	58.12271
484.757	58.14716
485.198	58.16622
485.64	58.22501
486.081	58.39381
486.522	58.66696
486.963	59.1861
487.405	58.87335
487.846	59.19161
488.287	59.21363
488.728	59.47369
489.169	59.32208
489.61	59.99372
490.05	59.48622
490.491	60.02814
490.932	59.58057
491.373	59.71125
491.813	59.82829
492.254	59.54137
492.694	60.30218
493.135	60.31724
493.575	59.98044
494.016	60.16058
494.456	60.33253
494.896	60.57634
495.336	61.15124
495.777	61.04987
496.217	61.48188
496.657	61.0457
497.097	61.44448
497.537	61.23909
497.977	61.80899
498.416	61.75109
498.856	62.17044
499.296	61.97575
499.736	61.97026
500.175	61.71158
500.615	62.01841
501.054	62.47253
501.494	62.63855
501.933	62.71092
502.373	63.46
502.812	63.31054
503.251	63.78277
503.69	63.83799
504.129	64.52085
504.569	64.64644
505.008	64.32517
505.447	64.81197
505.886	65.32934
506.324	65.48696
506.763	65.46435
507.202	65.47368
507.641	65.84707
508.079	66.27342
508.518	66.83702
508.957	66.69538
509.395	66.62728
509.834	67.43576
510.272	67.11043
510.71	67.42862
511.149	67.62159
511.587	67.84646
512.025	68.06359
512.463	68.25143
512.901	68.59596
513.339	68.78248
513.777	69.10514
514.215	69.55082
514.653	70.00555
515.091	70.4228
515.529	70.00195
515.966	70.89817
516.404	71.2312
516.842	71.69901
517.279	71.40904
517.717	71.52549
518.154	71.9348
518.592	72.11158
519.029	72.24531
519.466	72.95127
519.904	72.21329
520.341	73.05698
520.778	73.23065
521.215	73.14035
521.652	73.74787
522.089	73.84054
522.526	73.88076
522.963	74.27957
523.399	74.15781
523.836	75.09875
524.273	75.44306
524.71	75.26554
525.146	75.84707
525.583	75.94321
526.019	76.30631
526.456	76.80365
526.892	76.94848
527.328	76.9956
527.765	76.7727
528.201	77.61565
528.637	77.15776
529.073	77.84532
529.509	78.36932
529.945	78.05912
530.381	77.90433
530.817	79.0053
531.253	78.86596
531.689	79.14706
532.124	78.27973
532.56	79.14318
532.996	79.6909
533.431	79.95048
533.867	80.22962
534.302	79.98179
534.738	80.23897
535.173	81.08739
535.608	81.03894
536.044	81.28017
536.479	81.3856
536.914	81.78208
537.349	81.98033
537.784	81.46248
538.219	82.06197
538.654	81.69111
539.089	81.49842
539.524	81.58691
539.959	81.9187
540.393	81.37766
540.828	82.35184
541.263	82.45344
541.697	82.20542
542.132	82.34534
542.566	83.09985
543.001	83.40298
543.435	83.24187
543.869	82.78152
544.303	83.29505
544.738	83.33384
545.172	82.66712
545.606	83.00264
546.04	82.41454
546.474	82.64257
546.908	82.55959
547.342	83.0294
547.775	82.6969
548.209	82.73258
548.643	82.33883
549.077	82.38925
549.51	82.92748
549.944	82.64992
550.377	82.08423
550.811	81.91095
551.244	81.89877
551.677	81.40622
552.111	81.71561
552.544	81.76242
552.977	80.68606
553.41	80.83462
553.843	80.67178
554.276	80.3788
554.709	80.40715
555.142	81.0125
555.575	80.55449
556.008	80.36947
556.44	80.0055
556.873	80.26842
557.306	79.68802
557.738	79.12109
558.171	78.52772
558.603	78.45419
559.036	78.21416
559.468	77.77705
559.9	77.94851
560.333	77.38963
560.765	77.69259
561.197	77.77111
561.629	76.83004
562.061	76.96833
562.493	76.06403
562.925	75.98399
563.357	75.7325
563.789	75.80692
564.22	75.69736
564.652	75.30282
565.084	75.40482
565.515	75.09588
565.947	74.64091
566.378	74.13754
566.81	73.83592
567.241	73.47072
567.672	72.82396
568.104	72.99683
568.535	72.72492
568.966	72.21343
569.397	71.6667
569.828	72.06297
570.259	71.95765
570.69	71.13258
571.121	70.80715
571.552	71.04831
571.983	70.41892
572.414	69.89335
572.844	69.70019
573.275	69.03804
573.705	69.25847
574.136	69.38192
574.566	69.07547
574.997	68.05247
575.427	68.19335
575.857	67.62776
576.288	67.7243
576.718	67.39899
577.148	66.80401
577.578	67.01414
578.008	66.96064
578.438	66.29178
578.868	65.901
579.298	65.8276
579.728	65.19408
580.157	64.42111
580.587	64.55079
581.017	64.52269
581.446	63.875
581.876	63.6195
582.305	63.44236
582.735	62.69796
583.164	62.47248
583.593	62.20271
584.023	61.66949
584.452	61.82487
584.881	61.56098
585.31	61.42164
585.739	61.4684
586.168	61.27813
586.597	61.33299
587.026	61.16642
587.455	60.62496
587.884	60.4294
588.312	60.07529
588.741	59.77542
589.17	59.55227
589.598	58.48956
590.027	58.91007
590.455	58.6801
590.884	58.24609
591.312	58.18726
591.74	57.9011
592.168	57.51802
592.597	57.21203
593.025	56.50595
593.453	56.29649
593.881	56.28016
594.309	55.95357
594.737	55.6513
595.165	55.17856
595.592	54.89382
596.02	54.74405
596.448	54.55962
596.875	54.64579
597.303	54.48236
597.73	54.00486
598.158	54.2155
598.585	53.83564
599.013	53.78222
599.44	53.65338
599.867	53.17058
600.294	53.29799
600.722	53.15023
601.149	53.09829
601.576	53.08458
602.003	52.52958
602.43	52.46402
602.856	52.43164
603.283	52.07501
603.71	51.59609
604.137	51.70361
604.563	51.562
604.99	51.24353
605.416	50.97954
605.843	50.11695
606.269	50.47687
606.696	49.87213
607.122	50.14925
607.548	50.06135
607.975	49.66924
608.401	49.90769
608.827	49.65997
609.253	49.73436
609.679	49.459
610.105	49.69287
610.531	49.26223
610.956	48.80457
611.382	48.61496
611.808	49.02311
612.234	48.46931
612.659	48.68732
613.085	48.57664
613.51	48.1418
613.936	48.18529
614.361	48.33393
614.786	47.96001
615.212	48.10782
615.637	48.19088
616.062	47.97281
616.487	47.77863
616.912	47.88533
617.337	47.33034
617.762	47.67681
618.187	47.39557
618.612	47.09156
619.037	47.19073
619.461	47.19739
619.886	46.58288
620.311	46.95819
620.735	47.18307
621.16	46.856
621.584	46.71665
622.008	46.60282
622.433	47.22492
622.857	46.85616
623.281	47.00446
623.705	46.61004
624.13	46.35091
624.554	46.42298
624.978	47.02236
625.402	46.63672
625.826	46.65407
626.249	46.90007
626.673	46.59351
627.097	47.0638
627.521	46.57035
627.944	46.65836
628.368	46.87357
628.791	47.08965
629.215	46.89275
629.638	47.15582
630.061	47.13723
630.485	47.35446
630.908	47.50162
631.331	47.48471
631.754	47.26181
632.177	47.37165
632.6	47.36143
633.023	46.95691
633.446	47.63756
633.869	47.28475
634.292	47.53175
634.715	47.89404
635.137	47.68826
635.56	47.88138
635.982	48.03292
636.405	48.16164
636.827	48.1202
637.25	48.81274
637.672	48.49306
638.094	48.70092
638.517	48.92065
638.939	49.07781
639.361	49.04658
639.783	49.70867
640.205	49.84546
640.627	49.52415
641.049	49.64522
641.471	49.5454
641.893	49.92772
642.314	50.19565
642.736	50.57232
643.158	50.32985
643.579	50.59021
644.001	50.4493
644.422	50.84354
644.844	51.27723
645.265	51.56476
645.686	51.47256
646.107	51.54897
646.529	51.53946
646.95	51.70092
647.371	51.65328
647.792	52.01155
648.213	52.3447
648.634	52.34887
649.055	52.75744
649.475	52.81607
649.896	53.13213
650.317	53.17974
650.737	53.9686
651.158	54.09699
651.578	54.41567
651.999	55.13723
652.419	54.89224
652.84	54.38896
653.26	55.10338
653.68	55.20998
654.1	55.1787
654.521	55.04751
654.941	55.54007
655.361	56.34721
655.781	56.3998
656.2	56.66173
656.62	56.63212
657.04	57.53555
657.46	57.44336
657.879	57.72637
658.299	57.84282
658.719	57.90412
659.138	58.35769
659.558	57.96674
659.977	58.76061
660.396	58.37158
660.816	59.34469
661.235	58.98488
661.654	59.66486
662.073	59.8963
662.492	59.53127
662.911	60.74184
663.33	60.4485
663.749	60.97127
664.168	61.2236
664.587	60.74164
665.006	60.74335
665.424	61.73843
665.843	60.74068
666.261	61.42349
666.68	62.02696
667.098	62.42134
667.517	62.30922
667.935	62.53474
668.353	63.02309
668.772	62.62873
669.19	62.80482
669.608	62.80452
670.026	63.52113
670.444	63.72275
670.862	63.5349
671.28	63.42401
671.698	63.21989
672.115	63.84797
672.533	63.73354
672.951	63.84237
673.368	63.6834
673.786	63.80516
674.203	63.4547
674.621	63.98071
675.038	64.2995
675.456	64.63034
675.873	64.09684
676.29	63.82893
676.707	64.4183
677.124	64.09022
677.541	64.37718
677.958	63.83395
678.375	64.09771
678.792	63.97749
679.209	63.61022
679.626	64.3807
680.043	64.10639
680.459	65.06789
680.876	63.87607
681.292	64.36567
681.709	64.87466
682.125	64.71794
682.542	64.91106
682.958	64.04784
683.374	63.90332
683.79	64.24315
684.207	64.3802
684.623	63.95201
685.039	63.96726
685.455	63.82673
685.871	63.9222
686.286	63.68927
686.702	63.30242
687.118	63.44122
687.534	63.09482
687.949	63.03021
688.365	62.72511
688.781	62.90794
689.196	63.03276
689.611	62.38085
690.027	62.52342
690.442	61.70796
690.857	61.84524
691.273	61.39075
691.688	61.34564
692.103	61.47229
692.518	60.99143
692.933	61.39031
693.348	60.96839
693.763	60.73653
694.177	60.63756
694.592	60.73376
695.007	60.15474
695.421	60.13117
695.836	59.6559
696.25	58.89215
696.665	59.32133
697.079	58.73798
697.494	58.97273
697.908	58.45561
698.322	58.27234
698.736	57.73881
699.151	57.76399
699.565	57.49049
699.979	57.22914
700.393	57.12299
700.806	56.43185
701.22	56.71897
701.634	56.02772
702.048	56.21863
702.461	54.76434
702.875	55.56534
703.289	54.97861
703.702	54.97907
704.116	54.95051
704.529	54.80712
704.942	53.98324
705.356	54.35903
705.769	53.92387
706.182	53.19103
706.595	52.81489
707.008	52.23396
707.421	52.31284
707.834	51.67981
708.247	51.66824
708.66	51.02869
709.072	51.62497
709.485	50.79474
709.898	51.38185
710.31	49.60906
710.723	50.10729
711.135	49.17855
711.548	49.42245
711.96	49.07081
712.373	48.96258
712.785	48.05358
713.197	48.22379
713.609	47.65359
714.021	47.85473
714.433	47.02346
714.845	46.98607
715.257	46.83164
715.669	46.36148
716.081	45.93003
716.493	45.46763
716.904	45.68403
717.316	44.70274
717.727	44.96932
718.139	43.99554
718.55	44.38633
718.962	43.21169
719.373	43.68976
719.784	43.18953
720.196	43.08337
720.607	42.7569
721.018	42.93129
721.429	41.52542
721.84	42.13538
722.251	41.15281
722.662	41.63006
723.073	40.54108
723.483	40.83411
723.894	39.96697
724.305	40.28949
724.715	38.99085
725.126	39.58419
725.536	38.98719
725.947	38.98748
726.357	38.26791
726.768	38.16127
727.178	37.82767
727.588	37.96956
727.998	37.21423
728.408	37.22217
728.818	36.86041
729.228	37.04586
729.638	36.32307
730.048	36.41784
730.458	36.21281
730.868	36.29416
731.277	35.57656
731.687	35.52939
732.097	35.56598
732.506	35.57408
732.916	35.32865
733.325	34.82678
733.734	34.82629
734.144	34.03735
734.553	34.38268
734.962	33.81972
735.371	33.88626
735.78	33.19571
736.189	33.80322
736.598	33.09845
737.007	33.3533
737.416	32.30808
737.825	32.12193
738.233	31.7936
738.642	32.6819
739.051	31.88206
739.459	32.31368
739.868	31.47655
740.276	32.09285
740.684	31.32984
741.093	31.70686
741.501	31.16492
741.909	31.28792
742.317	30.90639
742.725	30.99096
743.133	30.64655
743.541	30.29128
743.949	30.79119
744.357	30.31156
744.765	30.6039
745.173	29.86075
745.58	30.62859
745.988	29.2542
746.396	30.13839
746.803	28.95503
747.211	29.79219
747.618	29.10321
748.025	29.28783
748.433	28.79339
748.84	29.06149
749.247	28.49427
749.654	28.24595
750.061	28.54524
750.468	27.96856
750.875	28.4943
751.282	27.90466
751.689	28.38177
752.096	27.60342
752.502	27.90644
752.909	27.57518
753.316	27.87434
753.722	27.86591
754.129	27.70363
754.535	27.67799
754.941	27.53277
755.348	27.81996
755.754	26.93066
756.16	27.56036
756.566	27.14709
756.972	27.52441
757.378	27.08907
757.784	27.49332
758.19	26.83051
758.596	26.6937
759.002	27.26745
759.408	26.57153
759.813	27.2184
760.219	26.41391
760.624	27.21693
761.03	26.54364
761.435	26.57265
761.841	25.95596
762.246	26.29572
762.651	26.32947
763.057	25.78627
763.462	26.93531
763.867	26.27687
764.272	27.17238
764.677	26.70527
765.082	27.00594
765.487	26.4782
765.892	26.48553
766.296	26.54559
766.701	25.99437
767.106	26.58758
767.51	25.9906
767.915	26.57236
768.319	26.05855
768.724	26.25647
769.128	26.30688
769.532	25.53852
769.936	26.16667
770.341	25.73124
770.745	26.0092
771.149	25.21107
771.553	25.71525
771.957	25.64049
772.361	25.32963
772.764	25.82095
773.168	25.09877
773.572	26.23397
773.976	25.01581
774.379	25.73667
774.783	25.17414
775.186	25.17572
775.59	25.20786
775.993	24.8263
776.396	25.74426
776.8	24.94906
777.203	25.69242
777.606	25.32501
778.009	25.47737
778.412	25.47385
778.815	24.89431
779.218	25.68342
779.621	24.99998
780.023	25.45466
780.426	25.23432
780.829	25.50855
781.231	25.46823
781.634	25.3658
782.036	25.79806
782.439	25.3013
782.841	25.37463
783.244	25.45492
783.646	25.04754
784.048	26.03669
784.45	24.48243
784.852	25.65314
785.254	25.41053
785.656	25.60542
786.058	25.60881
786.46	25.18691
786.862	25.55662
787.264	24.78001
787.665	25.18117
788.067	25.30832
788.468	25.05757
788.87	25.46676
789.271	24.83293
789.673	25.53319
790.074	25.12946
790.475	25.60522
790.877	25.93945
791.278	25.22554
791.679	25.5318
792.08	25.3408
792.481	25.47186
792.882	25.54245
793.283	24.8879
793.683	25.6653
794.084	24.66512
794.485	25.17631
794.886	25.18153
795.286	25.42964
795.687	25.93999
796.087	24.94959
796.487	25.387
796.888	25.95941
797.288	25.08229
797.688	25.27473
798.088	24.81628
798.489	25.46817
798.889	25.28352
799.289	25.40771
799.689	25.82244
800.088	24.80562
800.488	25.39824
800.888	25.37527
801.288	25.09008
801.687	25.82435
802.087	25.26348
802.486	25.50055
802.886	25.93626
803.285	24.99048
803.685	26.02422
804.084	25.57961
804.483	25.58693
804.882	25.99413
805.281	25.37715
805.68	26.28721
806.079	25.68056
806.478	25.8724
806.877	26.15962
807.276	25.67303
807.675	25.95969
808.074	26.02525
808.472	25.49618
808.871	25.93815
809.269	25.42175
809.668	26.27807
810.066	25.95982
810.465	25.78062
810.863	26.32847
811.261	25.45137
811.659	26.17981
812.057	26.01508
812.455	26.10921
812.853	25.85524
813.251	25.70057
813.649	25.82778
814.047	26.33575
814.445	25.79791
814.843	26.32653
815.24	26.07455
815.638	25.63349
816.035	26.35716
816.433	25.85184
816.83	26.25389
817.228	26.71007
817.625	25.69046
818.022	26.43635
818.419	25.99929
818.816	26.258
819.213	26.57421
819.61	25.83834
820.007	26.48768
820.404	26.6205
820.801	26.4409
821.198	27.42099
821.595	26.61994
821.991	27.00745
822.388	27.86649
822.784	27.43148
823.181	27.9451
823.577	27.9395
823.974	27.87855
824.37	28.09621
824.766	27.85046
825.162	27.78659
825.558	27.71166
825.954	26.99293
826.35	27.79496
826.746	27.9097
827.142	27.40645
827.538	28.26055
827.934	27.7986
828.33	28.08045
828.725	27.70136
829.121	27.31603
829.516	27.34423
829.912	27.54916
830.307	26.79979
830.703	27.27154
831.098	27.00538
831.493	26.69794
831.888	27.37957
832.283	26.89785
832.678	26.7722
833.073	27.80611
833.468	27.05213
833.863	27.58844
834.258	28.0069
834.653	27.57652
835.048	27.8673
835.442	27.74297
835.837	27.53299
836.231	27.98784
836.626	27.6737
837.02	27.24523
837.415	27.53279
837.809	27.15249
838.203	27.18962
838.597	27.47988
838.991	26.35135
839.385	26.9164
839.779	27.5039
840.173	27.18065
840.567	27.56994
840.961	27.44136
841.355	27.32322
841.748	27.66344
842.142	27.61609
842.536	27.83152
842.929	28.14094
843.323	27.15616
843.716	27.28668
844.109	27.9432
844.503	27.00332
844.896	28.35074
845.289	27.49634
845.682	27.7228
846.075	28.51421
846.468	27.7831
846.861	27.68539
847.254	28.33745
847.647	28.61326
848.04	27.11123
848.432	28.0542
848.825	27.90282
849.217	27.21427
849.61	28.38292
850.002	28.12072
850.395	27.93602
850.787	28.95294
851.179	27.33119
851.572	27.76683
851.964	28.18314
852.356	26.69502
852.748	27.51075
853.14	28.07753
853.532	27.91971
853.924	27.54912
854.315	28.20628
854.707	27.30618
855.099	28.14398
855.491	27.96785
855.882	27.19404
856.274	27.58281
856.665	27.6254
857.056	27.69021
857.448	28.19281
857.839	27.68053
858.23	27.70029
858.621	27.72088
859.012	27.30394
859.403	27.24775
859.794	28.33201
860.185	27.56199
860.576	27.44417
860.967	27.83435
861.358	28.15088
861.748	27.62603
862.139	27.88231
862.529	27.48057
862.92	26.64658
863.31	28.3255
863.701	27.05617
864.091	26.69068
864.481	27.39367
864.872	27.94123
865.262	26.55013
865.652	27.23597
866.042	27.03864
866.432	27.0539
866.822	27.89629
867.211	27.70539
867.601	26.79055
867.991	27.80899
868.381	27.73818
868.77	26.64424
869.16	28.11443
869.549	27.4613
869.939	26.75856
870.328	27.70208
870.717	27.4475
871.106	27.56539
871.496	27.26326
871.885	27.06573
872.274	27.41962
872.663	27.7255
873.052	28.1344
873.441	27.26508
873.829	28.20184
874.218	27.51685
874.607	26.7815
874.996	27.38711
875.384	27.14546
875.773	26.58256
876.161	27.46693
876.549	27.39836
876.938	26.45544
877.326	26.95162
877.714	27.40393
878.102	26.87928
878.491	26.79138
878.879	27.59108
879.267	26.82171
879.655	26.9485
880.042	27.80508
880.43	27.53892
880.818	27.6038
881.206	28.35825
881.593	28.19986
881.981	27.64764
882.368	28.11696
882.756	27.94689
883.143	27.85638
883.53	27.93843
883.918	27.79372
884.305	27.34761
884.692	27.83346
885.079	27.58763
885.466	26.92067
885.853	27.30444
886.24	27.3509
886.627	27.0833
887.014	27.54708
887.4	27.87911
887.787	27.38029
888.174	26.43917
888.56	27.21467
888.947	27.11133
889.333	26.87928
889.719	27.31085
890.106	26.77346
890.492	26.86471
890.878	26.68102
891.264	27.16009
891.65	26.74472
892.036	26.82712
892.422	26.82951
892.808	26.01451
893.194	26.33458
893.58	27.10346
893.965	26.18622
894.351	25.985
894.736	26.56071
895.122	26.65398
895.507	26.67784
895.893	27.01513
896.278	27.37026
896.663	26.46091
897.049	26.98283
897.434	27.54952
897.819	26.80401
898.204	26.86934
898.589	26.75596
898.974	26.99039
899.359	26.51628
899.743	27.25488
900.128	27.27441
900.513	26.8548
900.897	27.30096
901.282	26.95543
901.667	25.98155
902.051	26.71508
902.435	27.21413
902.82	25.73444
903.204	26.07304
903.588	26.80092
903.972	26.78604
904.356	26.69984
904.74	26.84005
905.124	27.01494
905.508	26.41407
905.892	27.09386
906.276	26.68333
906.659	27.18869
907.043	26.42495
907.427	26.5982
907.81	27.31057
908.194	26.60209
908.577	26.6752
908.96	26.80034
909.344	27.14392
909.727	26.65051
910.11	26.56839
910.493	26.46251
910.876	25.7912
911.259	25.80477
911.642	26.21784
912.025	25.30522
912.408	26.4652
912.79	25.87435
913.173	25.77946
913.556	25.5902
913.938	26.238
914.321	25.83671
914.703	25.53133
915.086	25.91725
915.468	26.79401
915.85	25.76024
916.232	26.03171
916.614	26.61634
916.996	25.74043
917.378	26.29827
917.76	26.32748
918.142	26.69957
918.524	25.87907
918.906	26.52088
919.288	26.27325
919.669	26.80753
920.051	26.68873
920.432	27.0407
920.814	25.1084
921.195	25.91468
921.577	26.73017
921.958	25.9228
922.339	25.50885
922.72	25.66065
923.101	26.57743
923.482	26.30041
923.863	25.40742
924.244	25.32555
924.625	25.91503
925.006	25.99933
925.387	25.82245
925.767	25.24698
926.148	26.53173
926.528	26.09639
926.909	25.15121
927.289	26.0171
927.67	25.20677
928.05	25.64357
928.43	25.85189
928.81	26.23107
929.191	24.70686
929.571	25.42921
929.951	26.32607
930.331	26.38916
930.71	25.64932
931.09	25.0301
931.47	25.63905
931.85	24.9006
932.229	25.13718
932.609	25.27874
932.988	24.17161
933.368	25.18106
933.747	25.26704
934.127	24.43937
934.506	26.16027
934.885	23.55098
935.264	24.60539
935.643	25.37838
936.022	24.0093
936.401	24.75161
936.78	25.93805
937.159	24.78825
937.538	24.65731
937.916	24.79246
938.295	25.02737
938.674	24.09308
939.052	24.4284
939.431	25.14686
939.809	24.25184
940.187	24.2307
940.566	24.4405
940.944	25.33349
941.322	24.37228
941.7	23.11884
942.078	23.88344
942.456	24.23438
942.834	24.66111
943.212	23.2454
943.59	25.403
943.968	23.29614
944.345	24.24836
944.723	22.56129
945.1	22.39078
945.478	23.09362
945.855	22.6563
946.233	22.61927
946.61	24.07417
946.987	23.8048
947.365	21.56036
947.742	22.60196
948.119	24.44614
948.496	23.81287
948.873	22.83296
949.25	23.36576
949.626	23.27693
950.003	23.02312
950.38	23.17393
950.756	25.17558
951.133	22.40749
951.51	22.20832
951.886	23.22372
952.262	23.89506
952.639	21.81453
953.015	23.95925
953.391	22.19627
953.767	21.81101
954.143	22.75398
954.519	23.24188
954.895	20.66518
955.271	23.56442
955.647	21.94383
956.023	22.12574
956.399	22.57798
956.774	20.93104
957.15	22.8465
957.525	21.8055
957.901	22.89643
958.276	21.77716
958.652	21.77851
959.027	22.9183
959.402	23.40137
959.777	22.25539
960.152	21.62541
960.527	20.7258
960.902	22.54477
961.277	21.77134
961.652	21.20759
962.027	20.97188
962.402	21.69526
962.776	22.32557
963.151	21.16019
963.525	22.53851
963.9	22.72675
964.274	18.95146
964.649	20.53756
965.023	22.45921
965.397	20.03117
965.771	20.17508
966.146	20.64084
966.52	22.0381
966.894	22.75733
967.268	20.97601
967.641	20.37472
968.015	21.07642
968.389	22.4791
968.763	21.99472
969.136	20.24347
969.51	20.34557
969.883	20.77383
970.257	20.11163
970.63	20.91371
971.003	19.92027
971.377	22.72507
971.75	21.7755
972.123	22.73069
972.496	21.03237
972.869	23.12819
973.242	20.52354
973.615	20.04858
973.988	23.36762
974.36	21.87247
974.733	22.62285
975.106	21.44756
975.478	21.75741
975.851	20.86638
976.223	20.81381
976.596	20.62774
976.968	21.00657
977.34	22.7129
977.712	21.79346
978.085	21.1018
978.457	22.05282
978.829	22.53333
979.201	21.80147
979.573	21.71693
979.944	22.04801
980.316	20.87327
980.688	20.66216
981.059	21.97064
981.431	21.62819
981.803	21.54614
982.174	21.9577
982.545	19.26015
982.917	21.22403
983.288	21.90378
983.659	21.5159
984.03	20.0652
984.401	20.90748
984.772	22.72917
985.143	20.03156
985.514	19.8973
985.885	21.18276
986.256	19.52828
986.627	21.87221
986.997	19.95945
987.368	18.2993
987.738	21.91358
988.109	20.85871
988.479	20.56866
988.85	20.28949
989.22	21.38806
989.59	21.9547
989.96	20.11401
990.33	20.38691
990.7	21.65269
991.07	21.01037
991.44	20.14841
991.81	21.34704
992.18	21.72653
992.549	22.2076
992.919	20.07592
993.289	20.80906
993.658	20.7017
994.028	21.89793
994.397	19.88507
994.766	21.28034
995.136	22.36675
995.505	19.99686
995.874	21.69302
996.243	19.93958
996.612	20.1577
996.981	23.20812
997.35	18.44788
997.719	20.61769
998.088	18.05656
998.456	21.0945
998.825	21.08884
999.194	19.76491
999.562	17.79821
999.931	18.80082
1000.299	13.38089
1000.667	16.2233
1001.036	17.71372
1001.404	21.29954
1001.772	12.80444
1002.14	18.21148
1002.508	21.60923
1002.876	16.42403
1003.244	19.20768
1003.612	17.62199
1003.98	15.65243
1004.347	14.26101
1004.715	18.24239
1005.083	17.37853
1005.45	17.85095
1005.818	13.1007
1006.185	16.80715
1006.552	19.72892
1006.92	17.58197
1007.287	15.61554
1007.654	17.25381
1008.021	15.91807
1008.388	14.58518
1008.755	21.54501
1009.122	12.54592
1009.489	16.33851
1009.856	19.29438
1010.222	19.15225
1010.589	22.25127
1010.956	16.86105
1011.322	15.74017
1011.689	17.11649
1012.055	16.29382
1012.421	17.73595
1012.788	15.46321
1013.154	16.17665
1013.52	21.43547
1013.886	14.66864
1014.252	11.8344
1014.618	11.52979
1014.984	9.21638
1015.35	12.24613
1015.716	15.70884
1016.081	14.36169
1016.447	19.47641
1016.813	11.43269
1017.178	12.84853
1017.544	15.47684
1017.909	14.49116
1018.274	14.44678
1018.64	7.18555
1019.005	10.82215
1019.37	16.07195
1019.735	18.08888
1020.1	9.60808
1020.465	16.31207
1020.83	9.48424
1021.195	2.28721
1021.56	12.62268
1021.924	11.64333
1022.289	16.02098
1022.654	9.80062
1023.018	7.56519
1023.383	10.37838
1023.747	16.47414
1024.111	4.67983
1024.476	14.80147
1024.84	16.90697
1025.204	12.32951
1025.568	12.04817
1025.932	10.54699
1026.296	16.2474
1026.66	9.19445
1027.024	10.60312
1027.387	4.71992
1027.751	12.38151
1028.115	1.27816
1028.478	0.81722
1028.842	0.92946
1029.205	9.56921
1029.569	5.05882
1029.932	-3.03476
1030.295	13.3706
1030.659	0
1031.022	-1.54919
1031.385	1.75304
1031.748	4.06378
1032.111	-2.09264
1032.474	8.17837
1032.836	1.75323
1033.199	11.28762
1033.562	-9.7274
1033.924	4.45875
1034.287	5.90689
1034.65	2.08821
1035.012	13.81249
1035.374	-7.42308
1035.737	-1.95958
1036.099	-10.27322
1036.461	-3.93198
1036.823	4.96596
1037.185	7.20005
1037.547	-1.5664
1037.909	-10.82064
1038.271	8.99188
1038.633	-1.3978
1038.995	-7.96832
1039.356	4.48032
1039.718	4.42579
1040.08	-0.71135
1040.441	-10.64029
1040.803	0
1041.164	-15.81731
1041.525	-2.60082
1041.886	8.04217
1042.248	3.90436
1042.609	3.9451
1042.97	-13.71921
1043.331	7.27428
1043.692	-4.08696
1044.053	-30.27228
1044.413	-16.88646
1044.774	-1.97528
1045.135	-6.53912
1045.495	-23.51679
1045.856	-11.66204
1046.216	-24.04134
1046.577	20.96166
1046.937	7.48588
1047.298	3.01109
