Data from 1014water-6_Reflection__7__23-49-35-811.txt Node

Date: Tue Oct 14 23:49:35 AST 2025
User: lin
Spectrometer: SR600411
Trigger mode: 0
Integration Time (sec): 5.910000E-2
Scans to average: 5
Nonlinearity correction enabled: true
Boxcar width: 0
Storing dark spectrum: false
XAxis mode: Wavelengths
Number of Pixels in Spectrum: 2048
>>>>>Begin Spectral Data<<<<<
187.982	50.20703
188.456	28.13736
188.93	44.69344
189.403	39.1572
189.877	32.91121
190.351	35.46986
190.825	32.22096
191.298	20.60668
191.772	32.02469
192.246	33.57625
192.719	17.64217
193.193	50.45672
193.666	23.52156
194.139	45.91131
194.613	36.93633
195.086	35.15888
195.559	37.89428
196.033	53.21481
196.506	46.80685
196.979	60.65741
197.452	46.03673
197.925	56.2664
198.398	55.96055
198.871	51.37901
199.344	47.45818
199.816	46.80336
200.289	39.91026
200.762	32.24871
201.235	26.77704
201.707	21.55131
202.18	36.12197
202.652	23.77111
203.125	5.6587
203.597	28.23904
204.07	15.21388
204.542	-14.41968
205.014	11.76192
205.486	18.30567
205.959	16.55623
206.431	-29.23737
206.903	41.95889
207.375	0.7998
207.847	12.3493
208.319	4.51015
208.791	-22.61445
209.263	37.20335
209.734	6.15236
210.206	-71.21529
210.678	13.04038
211.15	7.99855
211.621	-20.45026
212.093	45.79511
212.564	-85.46447
213.036	-6.12119
213.507	27.90185
213.979	-7.40571
214.45	15.72801
214.921	29.74707
215.392	-16.94453
215.864	-33.68746
216.335	0
216.806	-39.38678
217.277	21.50227
217.748	11.2342
218.219	-10.67721
218.69	-46.9321
219.161	2.59702
219.631	-17.64357
220.102	17.89653
220.573	-2.43862
221.043	-6.38172
221.514	-10.92152
221.985	-31.87833
222.455	-7.31517
222.926	6.40933
223.396	-48.30201
223.866	-4.87722
224.337	16.21323
224.807	-43.66737
225.277	-10.12484
225.747	-26.36763
226.217	-4.30931
226.687	-2.38055
227.157	4.94956
227.627	-47.81003
228.097	12.6565
228.567	-16.81827
229.037	-57.27458
229.507	14.84896
229.977	10.8678
230.446	-35.99516
230.916	33.61558
231.386	-23.52453
231.855	-71.68523
232.325	0
232.794	-14.63143
233.263	3.02973
233.733	23.07236
234.202	-26.91781
234.671	8.0447
235.14	-29.57209
235.61	-76.10165
236.079	-3.40848
236.548	-84.82803
237.017	-6.59214
237.486	-16.12674
237.955	-67.22848
238.424	-5.5541
238.892	28.56832
239.361	-29.57209
239.83	4.65041
240.299	9.01442
240.767	-180.9102
241.236	-28.72927
241.704	-69.71908
242.173	-19.73329
242.641	-1.51495
243.109	0.84014
243.578	-33.84034
244.046	-64.04922
244.514	-10.95715
244.982	-73.82965
245.451	-34.61059
245.919	-7.20551
246.387	-32.13815
246.855	-11.7625
247.323	9.30089
247.791	-21.09541
248.258	2.15015
248.726	-36.66073
249.194	-55.5448
249.662	16.92127
250.129	-48.82486
250.597	-36.4792
251.064	-18.6009
251.532	-91.64168
251.999	-63.2553
252.467	-23.93951
252.934	-54.8283
253.401	-16.4356
253.869	12.49827
254.336	-5.3753
254.803	3.50839
255.27	-1.06363
255.737	-5.88152
256.204	-9.85764
256.671	-50.78412
257.138	-21.58634
257.605	-1.9998
258.072	-78.35795
258.539	0
259.005	-1.2498
259.472	-11.59244
259.939	61.76153
260.405	-68.739
260.872	-28.56584
261.338	-82.3378
261.805	-3.57061
262.271	-48.9294
262.737	16.18766
263.203	7.8931
263.67	-99.98023
264.136	27.51864
264.602	-18.81977
265.068	-134.97493
265.534	-89.56721
266	-93.00799
266.466	-46.9607
266.932	-23.80708
267.398	-66.13973
267.864	-13.69638
268.329	-26.97986
268.795	-272.3557
269.261	-14.49049
269.726	-96.89855
270.192	-47.48891
270.657	-12.69663
271.123	-36.88293
271.588	-53.05336
272.053	-27.15496
272.519	-27.53144
272.984	-65.50481
273.449	53.57005
273.914	-45.64009
274.379	-3.44766
274.844	-15.06599
275.309	-38.56403
275.774	-61.69286
276.239	13.47193
276.704	13.82757
277.169	-17.38759
277.634	1.20462
278.098	-20.22044
278.563	1.96059
279.028	-25.87687
279.492	-24.44174
279.957	21.30945
280.421	44.18395
280.886	16.99721
281.35	-27.05304
281.814	-10.08142
282.279	-56.08338
282.743	40.58924
283.207	-127.00596
283.671	-80.57773
284.135	-27.77272
284.599	-54.98989
285.063	-29.50359
285.527	-89.683
285.991	-102.15513
286.455	-41.06501
286.919	-99.98973
287.382	5.88161
287.846	-26.91781
288.31	12.76389
288.773	-94.10537
289.237	-26.55825
289.7	13.4313
290.164	-76.69277
290.627	-49.9914
291.09	14.99798
291.554	-67.78335
292.017	-211.50465
292.48	0
292.943	8.88817
293.406	-26.91957
293.869	-26.20686
294.332	-42.85121
294.795	-21.94688
295.258	-58.19678
295.721	-49.99289
296.184	-33.32885
296.646	-34.42065
297.109	15.46141
297.572	-414.22675
298.034	-15.99725
298.497	-38.29296
298.959	-966.60553
299.422	-93.46181
299.884	-51.15622
300.346	-133.96902
300.809	-70.26153
301.271	-5.12737
301.733	8.21809
302.195	-55.34763
302.657	13.53945
303.119	-36.35609
303.581	-196.26529
304.043	13.88719
304.505	34.33902
304.967	-39.73504
305.429	23.29733
305.891	-30.87692
306.352	-32.25283
306.814	-18.515
307.275	-21.73552
307.737	3.9468
308.198	-22.07382
308.66	-54.53447
309.121	-4.05344
309.583	10.2557
310.044	-103.43621
310.505	27.82152
310.966	-71.17222
311.428	10.52525
311.889	-23.07327
312.35	-45.19602
312.811	-240.87338
313.272	-17.94709
313.733	-4.2097
314.193	1274.41805
314.654	-23.07328
315.115	-89.73046
315.576	-75.49738
316.036	-56.91161
316.497	-168.16222
316.957	-214.2764
317.418	-86.35663
317.878	8.16254
318.339	-14.28458
318.799	-36.57727
319.259	-51.17763
319.72	1.2498
320.18	-16.94684
320.64	-33.3307
321.1	7.40667
321.56	-82.74128
322.02	-108.14144
322.48	-4.49356
322.94	-111.52633
323.4	-11.99867
323.86	-42.84698
324.319	-554.46659
324.779	-13.63367
325.239	-21.73552
325.698	25.87913
326.158	2.12747
326.617	-17.54154
327.077	-92.84227
327.536	-22.72485
327.996	-12.656
328.455	23.74714
328.914	-32.07103
329.373	27.27014
329.832	-19.76341
330.292	-37.62489
330.751	-42.6389
331.21	-137.47421
331.668	-31.24222
332.127	1.81779
332.586	-36.35825
333.045	1.08676
333.504	-93.6002
333.962	-41.7832
334.421	-346.62072
334.88	-144.648
335.338	-22.91399
335.797	-16.43559
336.255	-99.97508
336.714	-1.03073
337.172	-10.25379
337.63	-63.2553
338.088	4.62869
338.547	-39.67564
339.005	-32.52305
339.463	18.5153
339.921	-19.39992
340.379	-73.45704
340.837	-41.01672
341.295	-73.6698
341.753	-18.17949
342.21	-99.97825
342.668	-21.04976
343.126	-44.27688
343.584	-4.81845
344.041	-20.22045
344.499	3.84558
344.956	16.97965
345.414	19.81634
345.871	-77.76549
346.328	-30.29789
346.786	-37.49429
347.243	-43.99374
347.7	-60.30544
348.157	-37.03163
348.614	-9.99848
349.071	-63.49832
349.528	-2233.02412
349.985	9.01442
350.442	-33.84034
350.899	-26.08247
351.356	-17.33032
351.812	-16.12559
352.269	0
352.726	-39.99558
353.182	-58.22519
353.639	-15.47323
354.095	12.98529
354.552	-10.29259
355.008	-81.33875
355.465	-8.69436
355.921	-29.53879
356.377	23.33016
356.833	-21.12317
357.289	-1.20462
357.745	15.21505
358.201	-23.60696
358.657	5.04957
359.113	-4.99896
359.569	16.83948
360.025	-12.92093
360.481	12.03478
360.937	13.09335
361.392	46.5207
361.848	-5.59854
362.303	9.84617
362.759	28.43599
363.214	39.81231
363.67	14.05792
364.125	38.90367
364.581	27.74624
365.036	42.84531
365.491	27.0956
365.946	24.16595
366.401	39.13045
366.856	49.11095
367.311	29.12785
367.766	45.58661
368.221	40.90387
368.676	45.84221
369.131	49.15933
369.586	49.97738
370.041	41.87373
370.495	45.85653
370.95	54.65637
371.404	49.82114
371.859	48.15144
372.313	51.5055
372.768	47.72825
373.222	53.25822
373.676	51.88368
374.131	54.82997
374.585	49.38906
375.039	55.45045
375.493	55.09227
375.947	56.81989
376.401	53.78096
376.855	55.18504
377.309	53.41793
377.763	55.4401
378.217	52.40225
378.67	53.00122
379.124	52.59211
379.578	53.50597
380.031	56.90853
380.485	53.50148
380.938	55.39994
381.392	56.01059
381.845	54.28156
382.299	57.00863
382.752	55.29371
383.205	55.18465
383.658	55.44
384.111	55.82464
384.564	54.48195
385.018	57.84473
385.471	54.97306
385.923	54.33464
386.376	57.51208
386.829	56.81713
387.282	56.53101
387.735	56.12324
388.187	57.23006
388.64	57.55569
389.093	57.19854
389.545	57.25262
389.998	58.71643
390.45	56.85364
390.902	57.08531
391.355	58.00178
391.807	58.97521
392.259	57.71626
392.711	58.1106
393.163	57.28964
393.615	57.63864
394.068	58.75069
394.519	57.91709
394.971	57.27293
395.423	57.51459
395.875	58.52397
396.327	57.94125
396.779	57.65036
397.23	57.72589
397.682	58.00562
398.133	57.85437
398.585	57.50138
399.036	57.82036
399.488	58.29183
399.939	58.30883
400.39	57.98006
400.842	57.5442
401.293	57.69063
401.744	56.88424
402.195	57.39477
402.646	57.22784
403.097	57.06328
403.548	57.31112
403.999	56.97733
404.45	56.82809
404.9	56.36016
405.351	57.13679
405.802	57.33209
406.253	56.84089
406.703	56.00698
407.154	56.88525
407.604	56.15182
408.055	56.47439
408.505	56.07103
408.955	56.83113
409.406	56.72257
409.856	55.60819
410.306	55.64965
410.756	55.26163
411.206	55.22936
411.656	54.33679
412.106	55.02043
412.556	54.90683
413.006	53.99135
413.456	54.06249
413.905	53.85583
414.355	54.41589
414.805	54.00046
415.254	53.77638
415.704	53.40011
416.153	52.8565
416.603	53.78094
417.052	53.46105
417.502	52.98927
417.951	52.837
418.4	52.43387
418.849	52.56859
419.298	52.65968
419.748	52.68278
420.197	52.48034
420.646	52.07293
421.094	51.74794
421.543	51.42521
421.992	51.51968
422.441	51.05963
422.89	51.40937
423.338	51.02354
423.787	51.50684
424.236	50.73727
424.684	50.67285
425.133	50.53476
425.581	49.9899
426.029	50.20044
426.478	49.53228
426.926	49.57098
427.374	49.84924
427.822	49.75124
428.27	50.06022
428.718	49.17849
429.166	49.34718
429.614	49.65038
430.062	48.77509
430.51	49.05945
430.958	48.39108
431.406	49.4165
431.853	48.88282
432.301	48.91505
432.749	48.29949
433.196	48.61604
433.644	48.5858
434.091	48.39777
434.538	48.2668
434.986	48.12426
435.433	47.42282
435.88	47.68363
436.327	47.72318
436.775	47.58688
437.222	47.48285
437.669	47.22085
438.116	47.39609
438.563	47.49395
439.009	47.95203
439.456	47.68399
439.903	47.89706
440.35	47.67705
440.796	47.48382
441.243	47.38672
441.689	47.81484
442.136	47.54732
442.582	47.38095
443.029	47.20868
443.475	47.36872
443.921	47.11238
444.368	47.6133
444.814	47.52067
445.26	47.31178
445.706	47.6552
446.152	47.10247
446.598	47.09789
447.044	47.49918
447.49	47.67984
447.936	47.67744
448.381	47.41509
448.827	47.66924
449.273	47.36536
449.718	47.66978
450.164	47.29209
450.61	47.18185
451.055	47.79582
451.5	47.6068
451.946	47.84199
452.391	47.85401
452.836	47.59075
453.282	47.24838
453.727	47.58109
454.172	47.61117
454.617	47.35246
455.062	47.52547
455.507	47.49478
455.952	47.6954
456.396	47.5754
456.841	48.00655
457.286	48.14318
457.731	47.94092
458.175	48.38659
458.62	47.98459
459.064	47.86279
459.509	47.78973
459.953	48.52312
460.398	48.23882
460.842	48.81883
461.286	48.62323
461.73	48.74738
462.174	48.92682
462.619	48.9472
463.063	48.79017
463.507	48.96691
463.951	49.1986
464.394	49.46421
464.838	49.53227
465.282	49.51215
465.726	49.76462
466.17	49.64212
466.613	50.30043
467.057	49.94771
467.5	50.42958
467.944	50.37421
468.387	51.15279
468.831	50.81517
469.274	51.602
469.717	51.77822
470.16	51.86559
470.603	52.20262
471.047	52.08854
471.49	52.83184
471.933	52.83097
472.376	52.70483
472.818	52.5359
473.261	52.72952
473.704	53.05334
474.147	53.48836
474.59	53.85847
475.032	54.10901
475.475	53.81323
475.917	54.30148
476.36	54.83663
476.802	54.60326
477.245	55.23143
477.687	55.50548
478.129	55.13357
478.571	55.54847
479.013	55.54699
479.456	55.82628
479.898	56.12954
480.34	56.25881
480.782	56.46211
481.224	56.75803
481.665	56.92086
482.107	56.80375
482.549	56.93971
482.991	57.62521
483.432	57.58744
483.874	58.41247
484.315	58.08321
484.757	58.1712
485.198	57.85133
485.64	58.73623
486.081	58.63198
486.522	58.71112
486.963	59.0842
487.405	58.81413
487.846	58.99345
488.287	59.46598
488.728	59.3221
489.169	59.48192
489.61	59.82166
490.05	59.8885
490.491	59.86726
490.932	59.47025
491.373	59.69424
491.813	59.56796
492.254	60.39649
492.694	60.5836
493.135	60.87008
493.575	60.63819
494.016	60.40598
494.456	60.65111
494.896	60.77442
495.336	61.06303
495.777	61.02439
496.217	61.31122
496.657	61.27373
497.097	61.81944
497.537	61.69939
497.977	61.43242
498.416	61.72112
498.856	61.80602
499.296	61.90052
499.736	62.2901
500.175	62.19814
500.615	62.19021
501.054	62.18591
501.494	62.74757
501.933	62.803
502.373	63.01039
502.812	63.42355
503.251	63.94479
503.69	63.42959
504.129	64.79396
504.569	63.81801
505.008	64.17382
505.447	64.69049
505.886	65.12689
506.324	65.04393
506.763	65.59695
507.202	65.46998
507.641	65.93597
508.079	66.00042
508.518	66.55304
508.957	65.86526
509.395	66.77761
509.834	67.31966
510.272	67.49268
510.71	67.64151
511.149	67.35021
511.587	68.00178
512.025	67.82131
512.463	68.25844
512.901	68.9919
513.339	68.87625
513.777	69.13257
514.215	69.47554
514.653	69.47716
515.091	70.21407
515.529	69.73655
515.966	70.6716
516.404	70.76157
516.842	71.1663
517.279	70.67014
517.717	71.34013
518.154	71.64795
518.592	72.32744
519.029	72.50944
519.466	72.70737
519.904	72.18441
520.341	73.3156
520.778	73.42999
521.215	73.58427
521.652	73.7133
522.089	73.9431
522.526	73.88231
522.963	74.24094
523.399	74.56366
523.836	74.6088
524.273	75.00819
524.71	75.64604
525.146	75.9879
525.583	75.74831
526.019	76.21365
526.456	76.61633
526.892	76.87465
527.328	77.08171
527.765	76.73662
528.201	77.1965
528.637	77.21625
529.073	77.32014
529.509	78.40954
529.945	77.80958
530.381	78.11219
530.817	78.78999
531.253	78.66621
531.689	78.83886
532.124	78.40673
532.56	79.01812
532.996	79.85238
533.431	79.70279
533.867	80.60783
534.302	79.44865
534.738	79.91646
535.173	80.85658
535.608	80.92172
536.044	80.72957
536.479	81.4663
536.914	81.60194
537.349	81.50997
537.784	81.58579
538.219	82.00595
538.654	81.94418
539.089	81.93059
539.524	82.13286
539.959	82.1093
540.393	81.78305
540.828	82.85737
541.263	82.28229
541.697	82.22715
542.132	82.40703
542.566	82.6678
543.001	83.28378
543.435	82.57991
543.869	82.81631
544.303	82.55596
544.738	83.2212
545.172	82.44005
545.606	82.69154
546.04	82.9911
546.474	82.21715
546.908	82.62205
547.342	82.70564
547.775	82.00721
548.209	82.60726
548.643	82.29852
549.077	82.16479
549.51	82.72585
549.944	82.46477
550.377	82.34497
550.811	82.22899
551.244	81.72817
551.677	81.29868
552.111	81.52916
552.544	80.78887
552.977	81.16903
553.41	81.49974
553.843	80.56215
554.276	80.39501
554.709	80.88046
555.142	80.6879
555.575	80.51628
556.008	80.12055
556.44	79.79996
556.873	79.86272
557.306	79.90282
557.738	79.4425
558.171	78.58668
558.603	78.96894
559.036	78.39069
559.468	78.21996
559.9	77.60961
560.333	77.34659
560.765	77.46573
561.197	77.17203
561.629	77.27217
562.061	76.5056
562.493	76.49313
562.925	76.48023
563.357	75.47366
563.789	75.71347
564.22	75.48144
564.652	75.08716
565.084	75.35296
565.515	74.74761
565.947	74.27235
566.378	74.36469
566.81	73.88752
567.241	73.22856
567.672	72.98051
568.104	72.134
568.535	72.57112
568.966	72.36041
569.397	72.18097
569.828	71.60906
570.259	71.70074
570.69	71.39545
571.121	70.7079
571.552	71.03732
571.983	70.39411
572.414	70.42243
572.844	69.45101
573.275	69.46285
573.705	69.23265
574.136	68.90971
574.566	68.9616
574.997	68.13426
575.427	68.288
575.857	67.75272
576.288	67.74483
576.718	67.68915
577.148	67.34143
577.578	66.56895
578.008	66.66388
578.438	66.37331
578.868	66.12986
579.298	65.97892
579.728	65.32232
580.157	65.05959
580.587	64.44662
581.017	65.00433
581.446	63.7995
581.876	63.82706
582.305	63.64633
582.735	63.14977
583.164	62.26048
583.593	62.4996
584.023	62.16506
584.452	62.05391
584.881	61.45335
585.31	61.67899
585.739	61.90983
586.168	61.24532
586.597	61.58529
587.026	61.34618
587.455	61.09697
587.884	60.85213
588.312	60.5803
588.741	60.16928
589.17	60.08254
589.598	59.18458
590.027	59.18923
590.455	58.84916
590.884	58.54413
591.312	58.50153
591.74	58.08436
592.168	58.04682
592.597	57.49714
593.025	57.14006
593.453	56.81931
593.881	56.43543
594.309	56.44455
594.737	56.38863
595.165	55.87798
595.592	55.67695
596.02	55.36992
596.448	55.14171
596.875	55.25062
597.303	54.60455
597.73	54.52014
598.158	54.90689
598.585	54.10113
599.013	54.18945
599.44	54.11868
599.867	54.29438
600.294	53.75554
600.722	53.84611
601.149	53.34091
601.576	52.75878
602.003	53.13474
602.43	52.95133
602.856	52.67362
603.283	52.43948
603.71	51.87639
604.137	51.87476
604.563	51.8517
604.99	51.49327
605.416	51.40061
605.843	51.05209
606.269	50.75559
606.696	50.6356
607.122	50.79999
607.548	50.79322
607.975	50.25766
608.401	50.49307
608.827	50.45533
609.253	50.31263
609.679	50.19701
610.105	50.67155
610.531	49.74738
610.956	49.18412
611.382	49.64008
611.808	49.77048
612.234	49.22686
612.659	48.91689
613.085	48.81739
613.51	49.03827
613.936	48.56054
614.361	48.81408
614.786	49.02289
615.212	48.67889
615.637	48.55313
616.062	48.42158
616.487	48.52113
616.912	48.10377
617.337	48.12849
617.762	48.53152
618.187	47.94276
618.612	47.83463
619.037	47.84479
619.461	47.76359
619.886	47.35546
620.311	47.44532
620.735	47.79628
621.16	47.779
621.584	47.31774
622.008	47.44681
622.433	47.5886
622.857	47.09207
623.281	47.33434
623.705	47.30157
624.13	47.02363
624.554	47.2415
624.978	47.29064
625.402	47.25706
625.826	47.16953
626.249	47.14125
626.673	47.2539
627.097	47.44716
627.521	47.05992
627.944	47.08795
628.368	47.59882
628.791	47.60305
629.215	47.0809
629.638	47.83242
630.061	47.6019
630.485	47.36398
630.908	47.93313
631.331	47.80534
631.754	47.58143
632.177	47.76155
632.6	47.89348
633.023	47.3312
633.446	47.58275
633.869	47.85834
634.292	47.38639
634.715	48.30434
635.137	48.44713
635.56	48.48656
635.982	47.9537
636.405	48.31437
636.827	48.46371
637.25	48.45685
637.672	48.84372
638.094	49.134
638.517	49.02658
638.939	49.2824
639.361	49.04658
639.783	49.41408
640.205	49.49592
640.627	49.54372
641.049	50.30621
641.471	50.0131
641.893	50.35854
642.314	50.39036
642.736	50.61071
643.158	50.67219
643.579	50.80396
644.001	50.98741
644.422	50.78069
644.844	51.30144
645.265	51.76778
645.686	51.34896
646.107	51.61834
646.529	51.8738
646.95	51.97159
647.371	52.03918
647.792	52.62056
648.213	52.50367
648.634	52.7487
649.055	52.86709
649.475	53.12797
649.896	53.46028
650.317	53.45334
650.737	54.02517
651.158	54.1817
651.578	54.01319
651.999	54.99512
652.419	54.56646
652.84	54.75956
653.26	55.42106
653.68	55.32359
654.1	55.13274
654.521	55.46152
654.941	55.96938
655.361	56.28463
655.781	56.27243
656.2	56.58795
656.62	57.25225
657.04	57.12396
657.46	56.95664
657.879	57.94394
658.299	57.80474
658.719	58.19557
659.138	58.11762
659.558	58.293
659.977	58.65497
660.396	58.47897
660.816	58.93868
661.235	58.66917
661.654	59.24934
662.073	59.6783
662.492	59.95231
662.911	60.20977
663.33	60.84119
663.749	60.44002
664.168	60.91731
664.587	60.16443
665.006	60.87936
665.424	61.94101
665.843	61.32244
666.261	60.91019
666.68	61.83154
667.098	62.50376
667.517	62.07767
667.935	62.50439
668.353	62.5848
668.772	62.02403
669.19	63.05959
669.608	62.82366
670.026	63.25494
670.444	63.12068
670.862	63.15691
671.28	63.18042
671.698	63.36413
672.115	63.64482
672.533	63.48759
672.951	63.77355
673.368	63.80784
673.786	63.93719
674.203	63.47108
674.621	64.24022
675.038	63.91513
675.456	64.51697
675.873	64.0153
676.29	63.87327
676.707	63.96974
677.124	63.61725
677.541	63.8555
677.958	63.54669
678.375	64.26766
678.792	63.8249
679.209	63.4873
679.626	63.8029
680.043	63.81384
680.459	64.41449
680.876	63.9426
681.292	63.88449
681.709	64.43426
682.125	64.14511
682.542	64.61907
682.958	63.61738
683.374	64.3497
683.79	64.29029
684.207	64.60411
684.623	64.2317
685.039	63.53133
685.455	63.48158
685.871	63.37954
686.286	63.19759
686.702	62.60995
687.118	63.22749
687.534	62.82047
687.949	62.40807
688.365	62.78092
688.781	62.74567
689.196	62.53237
689.611	61.9069
690.027	61.97059
690.442	61.39177
690.857	61.65064
691.273	62.09014
691.688	61.04713
692.103	61.33659
692.518	60.7918
692.933	61.23047
693.348	60.55063
693.763	60.59457
694.177	60.40283
694.592	60.27973
695.007	60.34156
695.421	59.78884
695.836	59.29284
696.25	58.84855
696.665	59.18951
697.079	58.10599
697.494	59.31949
697.908	58.55987
698.322	58.09642
698.736	57.83352
699.151	57.36343
699.565	57.2915
699.979	57.2195
700.393	56.91637
700.806	56.25721
701.22	56.41465
701.634	55.70063
702.048	56.04246
702.461	54.5323
702.875	55.48695
703.289	54.64955
703.702	55.22931
704.116	54.64589
704.529	54.47645
704.942	53.8182
705.356	53.92695
705.769	53.68485
706.182	52.8293
706.595	53.22496
707.008	52.29336
707.421	52.32207
707.834	51.54182
708.247	51.61235
708.66	51.20758
709.072	51.37327
709.485	50.83593
709.898	51.04543
710.31	49.92634
710.723	50.10199
711.135	49.28382
711.548	49.87165
711.96	49.57903
712.373	49.30658
712.785	48.54039
713.197	48.66623
713.609	47.44585
714.021	47.71367
714.433	47.28511
714.845	47.11684
715.257	46.92405
715.669	46.40161
716.081	46.29621
716.493	45.45115
716.904	45.53668
717.316	44.80021
717.727	45.28247
718.139	44.22148
718.55	44.2421
718.962	43.48579
719.373	43.86723
719.784	43.02529
720.196	43.45131
720.607	42.73071
721.018	42.65582
721.429	42.20469
721.84	42.28699
722.251	41.31676
722.662	41.88636
723.073	40.52075
723.483	41.17848
723.894	39.76584
724.305	40.45581
724.715	39.36333
725.126	39.64388
725.536	38.83619
725.947	39.34666
726.357	38.54214
726.768	39.10662
727.178	37.89098
727.588	38.25657
727.998	37.45176
728.408	37.85923
728.818	37.09588
729.228	37.11571
729.638	36.90825
730.048	36.62541
730.458	36.05808
730.868	36.08047
731.277	35.31203
731.687	35.55572
732.097	35.29701
732.506	35.40268
732.916	35.14673
733.325	34.95188
733.734	34.77666
734.144	34.62635
734.553	34.58391
734.962	33.70332
735.371	33.98671
735.78	33.35188
736.189	33.75844
736.598	33.17777
737.007	33.45324
737.416	32.531
737.825	32.61437
738.233	32.13741
738.642	32.96789
739.051	32.05732
739.459	32.92561
739.868	31.72617
740.276	32.30324
740.684	31.31355
741.093	32.06902
741.501	31.42961
741.909	31.37767
742.317	30.94203
742.725	30.93771
743.133	30.55885
743.541	30.54347
743.949	31.06719
744.357	30.22214
744.765	30.4399
745.173	29.76679
745.58	30.46804
745.988	29.47293
746.396	30.49374
746.803	29.10839
747.211	30.03779
747.618	29.4316
748.025	29.36033
748.433	29.06947
748.84	29.15318
749.247	28.90332
749.654	28.57445
750.061	28.9027
750.468	28.14623
750.875	28.69808
751.282	27.92615
751.689	28.70042
752.096	27.60538
752.502	28.48005
752.909	27.34023
753.316	28.2629
753.722	28.05532
754.129	27.82834
754.535	28.12108
754.941	27.52236
755.348	28.30788
755.754	27.35704
756.16	27.99311
756.566	27.60908
756.972	27.65754
757.378	27.24515
757.784	27.85224
758.19	27.12891
758.596	27.07464
759.002	27.06659
759.408	26.70463
759.813	27.25411
760.219	26.7084
760.624	27.30437
761.03	26.64438
761.435	26.60055
761.841	25.99036
762.246	26.43868
762.651	26.12668
763.057	26.20308
763.462	26.96473
763.867	26.66478
764.272	27.35913
764.677	26.87681
765.082	27.09211
765.487	26.90662
765.892	26.91682
766.296	26.59711
766.701	26.42883
767.106	26.83963
767.51	25.86074
767.915	26.77658
768.319	25.90713
768.724	26.2296
769.128	26.24029
769.532	25.73501
769.936	26.21776
770.341	25.46415
770.745	26.55227
771.149	25.49808
771.553	25.89735
771.957	25.5489
772.361	25.69946
772.764	26.2282
773.168	25.24019
773.572	26.06788
773.976	25.05624
774.379	25.75971
774.783	25.22292
775.186	25.4145
775.59	25.39268
775.993	25.21073
776.396	25.66264
776.8	24.90406
777.203	25.68973
777.606	25.30609
778.009	25.6312
778.412	25.64105
778.815	25.40868
779.218	25.85578
779.621	25.29887
780.023	25.57467
780.426	25.56773
780.829	25.8825
781.231	25.62704
781.634	24.99342
782.036	25.86834
782.439	25.37408
782.841	25.53835
783.244	25.32512
783.646	25.29387
784.048	25.99102
784.45	24.97041
784.852	25.71659
785.254	25.64196
785.656	25.68493
786.058	25.90356
786.46	25.56696
786.862	25.60157
787.264	24.94296
787.665	25.59356
788.067	25.34677
788.468	25.01685
788.87	25.48112
789.271	25.119
789.673	25.42066
790.074	25.07202
790.475	25.62062
790.877	25.81618
791.278	25.19348
791.679	25.81655
792.08	25.35738
792.481	25.59292
792.882	25.41488
793.283	25.09864
793.683	25.58447
794.084	24.94853
794.485	25.38625
794.886	25.14766
795.286	25.56663
795.687	25.74842
796.087	24.86169
796.487	25.24648
796.888	25.34711
797.288	25.04359
797.688	25.84858
798.088	24.86525
798.489	25.51763
798.889	25.22236
799.289	25.02967
799.689	25.85677
800.088	25.147
800.488	25.82481
800.888	25.86754
801.288	25.05026
801.687	26.05712
802.087	25.32624
802.486	25.81316
802.886	25.56559
803.285	25.75995
803.685	25.88275
804.084	25.94517
804.483	26.01392
804.882	25.44382
805.281	25.05233
805.68	26.3364
806.079	25.53944
806.478	25.79331
806.877	25.96478
807.276	25.39087
807.675	25.74757
808.074	26.07111
808.472	25.71554
808.871	25.86626
809.269	25.56159
809.668	26.47397
810.066	26.18496
810.465	25.94127
810.863	26.63758
811.261	25.54989
811.659	26.28051
812.057	26.12183
812.455	25.9692
812.853	26.38048
813.251	25.62422
813.649	25.99075
814.047	26.17637
814.445	25.69782
814.843	26.49047
815.24	25.98008
815.638	25.85785
816.035	26.35975
816.433	25.71452
816.83	26.38749
817.228	26.53708
817.625	26.00956
818.022	26.48832
818.419	26.01945
818.816	26.2912
819.213	26.43039
819.61	26.30742
820.007	26.759
820.404	26.66316
820.801	26.7384
821.198	27.35386
821.595	26.6901
821.991	27.01067
822.388	27.765
822.784	27.39212
823.181	27.82483
823.577	28.10382
823.974	27.75833
824.37	28.07549
824.766	27.69238
825.162	27.61088
825.558	27.61736
825.954	26.99581
826.35	27.67246
826.746	27.87705
827.142	27.50033
827.538	28.08974
827.934	27.69682
828.33	27.74772
828.725	27.87154
829.121	27.47177
829.516	27.34884
829.912	27.39031
830.307	27.39399
830.703	27.60644
831.098	27.19356
831.493	27.20061
831.888	27.35923
832.283	26.79901
832.678	27.13585
833.073	27.82804
833.468	27.16843
833.863	27.79483
834.258	28.2752
834.653	27.55836
835.048	28.32724
835.442	27.40958
835.837	27.55768
836.231	27.95117
836.626	27.51458
837.02	27.44817
837.415	27.84903
837.809	27.02909
838.203	27.71461
838.597	27.68551
838.991	26.69879
839.385	27.35676
839.779	27.31841
840.173	27.0382
840.567	27.65268
840.961	27.26632
841.355	27.54863
841.748	27.49485
842.142	27.46771
842.536	27.70018
842.929	27.46177
843.323	27.20737
843.716	27.8101
844.109	28.20761
844.503	27.43707
844.896	27.64664
845.289	27.9011
845.682	27.83777
846.075	28.25142
846.468	27.58249
846.861	27.35689
847.254	28.05671
847.647	28.15424
848.04	27.1455
848.432	28.34706
848.825	28.66252
849.217	27.97956
849.61	28.1449
850.002	27.70687
850.395	28.22181
850.787	28.26876
851.179	27.08887
851.572	27.75206
851.964	28.12351
852.356	27.72562
852.748	28.00456
853.14	27.64266
853.532	27.74472
853.924	28.11918
854.315	28.56526
854.707	27.6193
855.099	28.19022
855.491	28.31048
855.882	27.69356
856.274	28.49516
856.665	27.58791
857.056	27.9334
857.448	28.22294
857.839	27.61252
858.23	27.23644
858.621	27.94601
859.012	27.85012
859.403	27.57177
859.794	28.08933
860.185	27.80491
860.576	27.95145
860.967	27.4935
861.358	27.65003
861.748	28.09595
862.139	27.53005
862.529	28.29253
862.92	27.99619
863.31	28.45347
863.701	27.63695
864.091	27.02874
864.481	27.45426
864.872	27.88153
865.262	27.91932
865.652	27.66215
866.042	27.25294
866.432	27.35024
866.822	28.1002
867.211	27.49731
867.601	27.65913
867.991	28.35148
868.381	27.8371
868.77	27.45788
869.16	27.85072
869.549	27.6228
869.939	26.70936
870.328	28.06427
870.717	27.37743
871.106	27.60793
871.496	27.82724
871.885	27.57438
872.274	27.33514
872.663	28.28633
873.052	27.55456
873.441	26.64147
873.829	28.1075
874.218	27.24632
874.607	27.42323
874.996	27.6857
875.384	27.72865
875.773	26.28202
876.161	27.19456
876.549	27.34903
876.938	26.91282
877.326	27.24994
877.714	27.40146
878.102	27.00501
878.491	27.16731
878.879	27.63861
879.267	26.95154
879.655	27.25162
880.042	27.99586
880.43	27.41079
880.818	27.85657
881.206	28.57946
881.593	27.97572
881.981	27.8859
882.368	28.57318
882.756	28.15951
883.143	27.86702
883.53	27.84107
883.918	27.89816
884.305	27.53746
884.692	28.0217
885.079	27.53044
885.466	26.85863
885.853	27.63717
886.24	26.89103
886.627	27.28318
887.014	27.67153
887.4	27.82317
887.787	27.61324
888.174	27.19921
888.56	27.37773
888.947	27.4439
889.333	26.76026
889.719	27.17967
890.106	27.61347
890.492	26.95607
890.878	26.92195
891.264	27.49489
891.65	26.96648
892.036	26.92225
892.422	26.86466
892.808	26.37048
893.194	26.35951
893.58	26.70987
893.965	26.7075
894.351	26.33635
894.736	27.10748
895.122	26.62648
895.507	26.5356
895.893	27.21792
896.278	27.29935
896.663	26.75942
897.049	26.84392
897.434	27.39866
897.819	26.73262
898.204	27.16804
898.589	27.15431
898.974	26.5182
899.359	26.52041
899.743	26.84052
900.128	27.5086
900.513	26.38593
900.897	26.80121
901.282	26.72381
901.667	26.09461
902.051	26.96209
902.435	26.80851
902.82	25.70856
903.204	26.24086
903.588	27.07719
903.972	27.04922
904.356	26.52826
904.74	27.06899
905.124	27.20107
905.508	26.76163
905.892	27.25357
906.276	26.92341
906.659	26.49734
907.043	26.61511
907.427	27.08186
907.81	27.55748
908.194	26.73518
908.577	27.33818
908.96	27.46575
909.344	26.47254
909.727	26.07777
910.11	26.66469
910.493	26.79462
910.876	26.20563
911.259	26.56133
911.642	26.75695
912.025	25.94656
912.408	25.94148
912.79	26.0586
913.173	25.72473
913.556	25.31369
913.938	26.14696
914.321	26.01826
914.703	25.55844
915.086	26.60241
915.468	26.46899
915.85	26.26722
916.232	26.4548
916.614	26.88343
916.996	26.34329
917.378	26.20735
917.76	26.9508
918.142	26.96315
918.524	26.56671
918.906	27.12679
919.288	27.25026
919.669	26.88303
920.051	26.98158
920.432	26.74979
920.814	26.40205
921.195	26.32241
921.577	26.54188
921.958	26.69367
922.339	26.4456
922.72	26.32711
923.101	25.73857
923.482	26.0096
923.863	25.4875
924.244	26.67928
924.625	26.289
925.006	26.50058
925.387	25.78722
925.767	26.22386
926.148	25.96837
926.528	25.749
926.909	25.94608
927.289	25.3307
927.67	25.2982
928.05	25.27229
928.43	26.21596
928.81	25.82557
929.191	25.56783
929.571	24.93831
929.951	25.32216
930.331	26.34238
930.71	25.42892
931.09	25.16129
931.47	25.87708
931.85	26.33499
932.229	25.38003
932.609	25.88816
932.988	25.07389
933.368	24.80777
933.747	24.66134
934.127	25.93545
934.506	25.43372
934.885	25.64331
935.264	25.23939
935.643	25.77928
936.022	25.08386
936.401	25.04258
936.78	24.98544
937.159	25.62064
937.538	24.77552
937.916	25.8958
938.295	25.21247
938.674	24.49794
939.052	24.40321
939.431	25.8494
939.809	24.19839
940.187	23.88307
940.566	23.23135
940.944	25.43982
941.322	25.83677
941.7	23.13522
942.078	23.8
942.456	24.37244
942.834	24.45505
943.212	23.21044
943.59	25.05022
943.968	23.96799
944.345	24.30179
944.723	24.25173
945.1	22.67355
945.478	23.96964
945.855	23.92213
946.233	22.53084
946.61	22.96822
946.987	24.1249
947.365	22.25064
947.742	22.79696
948.119	24.87026
948.496	22.29703
948.873	22.40369
949.25	23.33222
949.626	23.02364
950.003	23.10848
950.38	22.7734
950.756	24.3984
951.133	22.74432
951.51	21.75701
951.886	23.29569
952.262	24.60237
952.639	21.81453
953.015	23.34809
953.391	22.79629
953.767	22.13083
954.143	22.32386
954.519	22.11153
954.895	21.41395
955.271	23.01602
955.647	22.04512
956.023	19.99009
956.399	23.23348
956.774	21.90231
957.15	22.98385
957.525	22.80077
957.901	23.45717
958.276	24.15377
958.652	21.4036
959.027	21.24872
959.402	22.21694
959.777	23.42323
960.152	19.82899
960.527	20.08534
960.902	22.74396
961.277	22.03557
961.652	20.47886
962.027	21.10394
962.402	22.03204
962.776	22.09443
963.151	21.64246
963.525	22.63692
963.9	22.46214
964.274	21.6353
964.649	21.16452
965.023	19.66779
965.397	20.89677
965.771	21.27655
966.146	22.19617
966.52	21.95533
966.894	22.05519
967.268	22.55034
967.641	20.66322
968.015	22.13324
968.389	23.37675
968.763	21.86752
969.136	21.85672
969.51	22.13192
969.883	21.41865
970.257	21.49511
970.63	21.11226
971.003	20.93144
971.377	23.03629
971.75	22.13001
972.123	20.73731
972.496	22.49954
972.869	21.53273
973.242	22.09639
973.615	21.75261
973.988	20.35205
974.36	23.06683
974.733	21.32125
975.106	22.45779
975.478	23.11834
975.851	21.33515
976.223	21.83151
976.596	21.28511
976.968	21.87414
977.34	22.55392
977.712	20.95244
978.085	21.25591
978.457	22.0165
978.829	22.29597
979.201	23.18967
979.573	21.8574
979.944	22.31009
980.316	22.03859
980.688	22.79406
981.059	21.73975
981.431	21.27142
981.803	21.87169
982.174	21.76107
982.545	21.74487
982.917	21.31479
983.288	21.92789
983.659	19.05869
984.03	20.35835
984.401	20.60563
984.772	22.24546
985.143	21.28
985.514	19.37758
985.885	21.21123
986.256	20.54413
986.627	22.17154
986.997	20.89526
987.368	20.35271
987.738	20.7186
988.109	20.23192
988.479	21.3805
988.85	20.15214
989.22	21.5901
989.59	21.92342
989.96	18.98993
990.33	21.39355
990.7	22.10004
991.07	20.56378
991.44	20.39819
991.81	20.38939
992.18	20.23016
992.549	21.94265
992.919	20.55475
993.289	21.4951
993.658	19.71631
994.028	22.17158
994.397	20.1979
994.766	23.45678
995.136	21.10949
995.505	20.44413
995.874	21.7455
996.243	20.61358
996.612	21.64367
996.981	21.74357
997.35	19.63484
997.719	21.01883
998.088	21.13981
998.456	21.53526
998.825	21.68588
999.194	21.11279
999.562	17.93629
999.931	22.28568
1000.299	16.59844
1000.667	18.10855
1001.036	17.9898
1001.404	18.50077
1001.772	19.64568
1002.14	18.67428
1002.508	17.72689
1002.876	17.55124
1003.244	18.26251
1003.612	16.22172
1003.98	15.84263
1004.347	15.62631
1004.715	19.11156
1005.083	21.3967
1005.45	19.65088
1005.818	17.79684
1006.185	18.76567
1006.552	16.29616
1006.92	15.87752
1007.287	14.45583
1007.654	15.23886
1008.021	16.06026
1008.388	18.13299
1008.755	17.46679
1009.122	15.54736
1009.489	19.13739
1009.856	15.39651
1010.222	17.02313
1010.589	15.65765
1010.956	16.72717
1011.322	16.46195
1011.689	19.70928
1012.055	14.76354
1012.421	15.38354
1012.788	15.95769
1013.154	18.89863
1013.52	19.04448
1013.886	15.95164
1014.252	11.75703
1014.618	18.02826
1014.984	15.36273
1015.35	19.07188
1015.716	17.32521
1016.081	18.2527
1016.447	15.85165
1016.813	13.47477
1017.178	13.79662
1017.544	18.2722
1017.909	15.73684
1018.274	10.86332
1018.64	18.83455
1019.005	17.2188
1019.37	8.70973
1019.735	20.80307
1020.1	12.1797
1020.465	18.31819
1020.83	20.30511
1021.195	10.97985
1021.56	11.37582
1021.924	8.57896
1022.289	14.92129
1022.654	12.72404
1023.018	12.20812
1023.383	0.81072
1023.747	13.63945
1024.111	8.82009
1024.476	9.4354
1024.84	16.73616
1025.204	13.41757
1025.568	8.71145
1025.932	10.73877
1026.296	19.23604
1026.66	6.33378
1027.024	13.05031
1027.387	5.11327
1027.751	4.7785
1028.115	8.94772
1028.478	5.10783
1028.842	6.73888
1029.205	5.34075
1029.569	11.59383
1029.932	12.84107
1030.295	18.06275
1030.659	12.72661
1031.022	3.61492
1031.385	-0.25043
1031.748	5.02
1032.111	5.23189
1032.474	2.55563
1032.836	-5.55162
1033.199	8.80969
1033.562	-3.24261
1033.924	5.50791
1034.287	20.67656
1034.65	2.08821
1035.012	1.62486
1035.374	2.28418
1035.737	-2.61277
1036.099	1.55667
1036.461	-10.15723
1036.823	-0.31036
1037.185	1.72795
1037.547	1.56643
1037.909	-1.27309
1038.271	5.53336
1038.633	-21.66348
1038.995	7.63702
1039.356	-7.92615
1039.718	11.43372
1040.08	-0.71135
1040.441	16.72283
1040.803	-1.13148
1041.164	0
1041.525	-2.22928
1041.886	3.44656
1042.248	-8.19865
1042.609	12.82225
1042.97	-1.95998
1043.331	5.37658
1043.692	4.08714
1044.053	-6.72782
1044.413	2.28214
1044.774	6.71624
1045.135	-1.86836
1045.495	-4.97511
1045.856	-4.99814
1046.216	-42.38625
1046.577	20.42414
1046.937	4.4034
1047.298	-3.01103
