Data from 1014water-6_Reflection__8__23-49-51-889.txt Node

Date: Tue Oct 14 23:49:51 AST 2025
User: lin
Spectrometer: SR600411
Trigger mode: 0
Integration Time (sec): 5.910000E-2
Scans to average: 5
Nonlinearity correction enabled: true
Boxcar width: 0
Storing dark spectrum: false
XAxis mode: Wavelengths
Number of Pixels in Spectrum: 2048
>>>>>Begin Spectral Data<<<<<
187.982	43.65699
188.456	33.32148
188.93	44.3013
189.403	40.11249
189.877	39.90619
190.351	35.79238
190.825	21.06643
191.298	22.7991
191.772	26.83086
192.246	28.99698
192.719	17.64217
193.193	43.91481
193.666	23.52156
194.139	24.45501
194.613	57.41769
195.086	39.39566
195.559	37.24078
196.033	40.90758
196.506	48.39409
196.979	53.0724
197.452	52.65244
197.925	48.88908
198.398	49.8534
198.871	41.88225
199.344	38.12034
199.816	40.43674
200.289	32.15942
200.762	27.6412
201.235	32.57957
201.707	11.37392
202.18	18.70502
202.652	15.38094
203.125	10.06005
203.597	29.76559
204.07	46.37004
204.542	8.65222
205.014	19.84866
205.486	30.27577
205.959	10.82503
206.431	2.82961
206.903	41.95889
207.375	6.39852
207.847	48.2269
208.319	-0.75168
208.791	8.33207
209.263	18.60079
209.734	30.76376
210.206	-68.47651
210.678	20.28544
211.15	2.99943
211.621	5.68089
212.093	8.39496
212.564	-66.11559
213.036	4.08087
213.507	17.82572
213.979	-15.73685
214.45	-7.86368
214.921	23.13624
215.392	-21.18046
215.864	-49.98637
216.335	-16.85047
216.806	-3.0299
217.277	23.6526
217.748	12.35764
218.219	-14.55971
218.69	-57.13416
219.161	-41.5495
219.631	-8.2338
220.102	17.27937
220.573	-9.75436
221.043	-40.41499
221.514	5.88105
221.985	-13.04147
222.455	9.75396
222.926	-30.76302
223.396	-42.68592
223.866	-15.85068
224.337	13.51095
224.807	-16.08874
225.277	-78.45918
225.747	3.29613
226.217	-28.4399
226.687	13.09335
227.157	0.9899
227.627	-38.24886
228.097	-32.90456
228.567	20.55729
229.037	-35.40757
229.507	2.96972
229.977	16.30187
230.446	-85.98419
230.916	31.02958
231.386	-48.22329
231.855	-32.07104
232.325	10.16843
232.794	-39.01561
233.263	-25.24633
233.733	-3.07611
234.202	-60.24152
234.671	-16.08874
235.14	-45.06125
235.61	-62.67306
236.079	-4.54463
236.548	-24.2385
237.017	-17.5787
237.486	-8.06345
237.955	-39.64882
238.424	7.14121
238.892	-1.2985
239.361	-5.63297
239.83	-27.90091
240.299	0
240.767	-126.16679
241.236	-6.89528
241.704	-71.03439
242.173	-18.41778
242.641	-28.78304
243.109	33.6082
243.578	-19.99692
244.046	-42.17992
244.514	27.39439
244.982	-53.8355
245.451	-15.38279
245.919	5.40428
246.387	-46.42104
246.855	-5.88131
247.323	-27.90091
247.791	-33.93516
248.258	-25.80048
248.726	-56.65615
249.194	-42.84953
249.662	1.53827
250.129	-39.52551
250.597	-17.56455
251.064	-5.81291
251.532	-48.60084
251.999	-102.02085
252.467	-7.0412
252.934	-72.5653
253.401	-65.73775
253.869	-16.24701
254.336	-9.67547
254.803	-66.65418
255.27	8.50919
255.737	-57.34081
256.204	-23.9395
256.671	-77.76057
257.138	-12.49755
257.605	-53.99178
258.072	-25.67096
258.539	-47.81644
259.005	24.99703
259.472	-18.83753
259.939	-1.47039
260.405	-41.66107
260.872	-38.9528
261.338	-115.66112
261.805	19.63936
262.271	-223.33714
262.737	19.99668
263.203	-7.89282
263.67	-121.97323
264.136	-5.50334
264.602	7.05772
265.068	-134.97493
265.534	-49.99288
266	-88.35794
266.466	-42.41636
266.932	-76.17933
267.398	-78.44355
267.864	-20.54437
268.329	-28.56685
268.795	-234.43785
269.261	-59.40737
269.726	-30.76406
270.192	-11.24802
270.657	23.80726
271.123	-17.47155
271.588	-38.7703
272.053	3.70313
272.519	-23.18451
272.984	1.72394
273.449	49.99862
273.914	6.52063
274.379	-27.58015
274.844	1.36967
275.309	-49.98962
275.774	-63.82007
276.239	9.92659
276.704	29.78335
277.169	-27.16763
277.634	7.22781
278.098	-10.1104
278.563	-29.40793
279.028	18.82096
279.492	-93.31728
279.957	-11.47387
280.421	-53.4814
280.886	-2.99939
281.35	9.41033
281.814	-4.20065
282.279	-79.24528
282.743	9.89921
283.207	-151.32356
283.671	-71.6255
284.135	-13.88664
284.599	-19.99715
285.063	-60.64399
285.527	-58.81097
285.991	-80.42159
286.455	-94.62246
286.919	-69.22475
287.382	-41.16866
287.846	-53.83338
288.31	23.40093
288.773	-73.52084
289.237	-43.74204
289.7	-29.84561
290.164	-38.34851
290.627	-93.08283
291.09	-1.2498
291.554	-62.69997
292.017	-123.06284
292.48	-15.78672
292.943	-91.09562
293.406	-13.45997
293.869	5.82413
294.332	-42.85121
294.795	-19.50842
295.258	-32.83005
295.721	-133.30383
296.184	17.64559
296.646	-62.28289
297.109	1.03073
297.572	-349.95641
298.034	-11.99801
298.497	-99.98143
298.959	-399.98814
299.422	-78.24818
299.884	-39.5302
300.346	-51.99219
300.809	-91.87901
301.271	3.84558
301.733	-15.06599
302.195	-76.77071
302.657	8.33188
303.119	-77.90097
303.581	-166.64297
304.043	0
304.505	5.04957
304.967	-34.60821
305.429	-4.85333
305.891	-24.9958
306.352	-3.2254
306.814	-16.0464
307.275	10.14368
307.737	-9.20901
308.198	5.19406
308.66	-33.32754
309.121	6.75584
309.583	-7.69167
310.044	-89.64542
310.505	34.77745
310.966	-25.42001
311.428	-36.83642
311.889	-21.5351
312.35	6.8484
312.811	-295.40374
313.272	-125.61921
313.733	-35.78035
314.193	654.85886
314.654	-6.15301
315.115	-76.91259
315.576	-16.32469
316.036	-29.22592
316.497	-213.60725
316.957	-328.55195
317.418	-204.51835
317.878	-106.10127
318.339	0
318.799	7.31597
319.259	-26.18499
319.72	-7.49873
320.18	-13.55752
320.64	-109.98631
321.1	-3.70329
321.56	13.79174
322.02	-75.49736
322.48	20.22188
322.94	-123.06281
323.4	-35.99516
323.86	-21.42425
324.319	-354.51044
324.779	-18.17808
325.239	-69.54912
325.698	-28.22921
326.158	-87.21886
326.617	-10.52501
327.077	-71.4184
327.536	-49.99348
327.996	15.18786
328.455	-19.99621
328.914	0
329.373	-43.93114
329.832	-17.43838
330.292	-39.77472
330.751	-26.4661
331.21	-122.47847
331.668	-14.58017
332.127	3.6356
332.586	-47.26516
333.045	21.73603
333.504	-76.58319
333.962	-95.49767
334.421	-206.64786
334.88	-27.6563
335.338	-83.31884
335.797	15.06665
336.255	-76.17375
336.714	6.18445
337.172	-0.8545
337.63	-44.89166
338.088	-4.6286
338.547	-31.74083
339.005	-39.74992
339.463	23.14435
339.921	-40.29103
340.379	-93.85992
340.837	-24.3543
341.295	-73.6698
341.753	-39.99392
342.21	-41.81173
342.668	-29.82019
343.126	-19.99668
343.584	-69.86006
344.041	-8.98704
344.499	-33.32649
344.956	22.63967
345.414	-9.90752
345.871	-108.86868
346.328	-34.84236
346.786	-16.06936
347.243	-95.98141
347.7	-49.19722
348.157	-92.57358
348.614	-12.85513
349.071	-9.45794
349.528	-299.99288
349.985	6.5559
350.442	-35.37847
350.899	-21.73552
351.356	-31.99374
351.812	-26.87545
352.269	14.13904
352.726	-19.99811
353.182	5.49357
353.639	-21.42426
354.095	-7.79093
354.552	-2.94077
355.008	-79.64435
355.465	-15.93951
355.921	-12.49755
356.377	-14.44151
356.833	-73.22165
357.289	-9.63682
357.745	1.08676
358.201	-8.33205
358.657	-22.2169
359.113	-11.99735
359.569	-10.52413
360.025	8.16109
360.481	11.10901
360.937	9.52238
361.392	50.68733
361.848	16.79655
362.303	-4.54422
362.759	17.4281
363.214	41.13964
363.67	26.03437
364.125	42.97575
364.581	20.52385
365.036	37.13158
365.491	20.87024
365.946	39.91382
366.401	41.10391
366.856	47.07612
367.311	44.46268
367.766	48.88319
368.221	37.11044
368.676	45.36943
369.131	37.68518
369.586	48.0209
370.041	44.29423
370.495	51.28544
370.95	48.40612
371.404	50.83564
371.859	46.40661
372.313	51.87635
372.768	50.8972
373.222	48.57849
373.676	48.98227
374.131	49.41203
374.585	51.50511
375.039	56.0018
375.493	52.40114
375.947	55.74347
376.401	55.43202
376.855	54.99595
377.309	57.10018
377.763	55.67034
378.217	54.19034
378.67	54.72764
379.124	54.43527
379.578	54.09682
380.031	55.13727
380.485	56.29349
380.938	56.03573
381.392	56.42009
381.845	53.6875
382.299	55.92379
382.752	55.09985
383.205	55.42299
383.658	55.21548
384.111	56.14089
384.564	56.19818
385.018	56.64577
385.471	55.12767
385.923	54.86156
386.376	57.80817
386.829	55.73052
387.282	57.29653
387.735	56.45659
388.187	56.87804
388.64	56.98055
389.093	56.94158
389.545	57.47204
389.998	57.60747
390.45	56.95143
390.902	57.8121
391.355	56.90746
391.807	58.73661
392.259	57.47001
392.711	58.38448
393.163	57.90532
393.615	57.41426
394.068	57.77933
394.519	58.02479
394.971	56.86328
395.423	57.72937
395.875	58.74224
396.327	58.1934
396.779	57.70623
397.23	57.34279
397.682	57.56884
398.133	57.63663
398.585	56.92606
399.036	57.3358
399.488	58.37934
399.939	58.16682
400.39	56.97216
400.842	57.48481
401.293	58.07146
401.744	57.03996
402.195	57.50332
402.646	57.09274
403.097	56.6159
403.548	57.08107
403.999	56.95585
404.45	56.77483
404.9	56.7787
405.351	56.58946
405.802	57.33727
406.253	55.92001
406.703	56.46966
407.154	56.68557
407.604	56.60418
408.055	55.2887
408.505	56.09021
408.955	55.65849
409.406	55.99581
409.856	55.22738
410.306	55.43231
410.756	54.53815
411.206	55.19411
411.656	54.12465
412.106	55.49883
412.556	54.53183
413.006	54.22052
413.456	54.14047
413.905	53.52218
414.355	53.71573
414.805	53.80304
415.254	54.41385
415.704	53.38478
416.153	53.60197
416.603	53.71758
417.052	53.30921
417.502	52.57052
417.951	53.18728
418.4	52.48886
418.849	52.41401
419.298	51.79722
419.748	52.4888
420.197	52.22058
420.646	52.11392
421.094	51.88815
421.543	51.05149
421.992	51.66532
422.441	51.819
422.89	50.97509
423.338	50.99013
423.787	51.47687
424.236	51.10246
424.684	50.87709
425.133	51.00542
425.581	50.00961
426.029	50.27524
426.478	50.30229
426.926	50.35671
427.374	49.61088
427.822	49.87984
428.27	49.6734
428.718	50.0559
429.166	49.68149
429.614	49.73953
430.062	49.36508
430.51	49.27959
430.958	49.15908
431.406	49.56718
431.853	48.96407
432.301	49.0264
432.749	48.48375
433.196	48.50044
433.644	48.60093
434.091	48.69135
434.538	48.1113
434.986	48.1127
435.433	47.88905
435.88	48.09603
436.327	47.88736
436.775	48.06511
437.222	48.03799
437.669	47.93547
438.116	47.28891
438.563	48.00761
439.009	47.50803
439.456	47.3975
439.903	47.66819
440.35	47.36055
440.796	47.48847
441.243	47.57493
441.689	47.19846
442.136	47.62073
442.582	47.74431
443.029	47.60747
443.475	47.61039
443.921	46.83163
444.368	47.65467
444.814	47.44697
445.26	48.00439
445.706	47.83299
446.152	47.44483
446.598	47.48978
447.044	47.42702
447.49	47.83346
447.936	47.37693
448.381	47.34953
448.827	47.22105
449.273	47.72383
449.718	47.98229
450.164	47.65868
450.61	47.38144
451.055	47.81518
451.5	47.55004
451.946	47.78003
452.391	47.30778
452.836	47.52746
453.282	47.74515
453.727	47.74265
454.172	47.63416
454.617	47.67048
455.062	47.43471
455.507	47.67561
455.952	47.26711
456.396	47.56243
456.841	47.58608
457.286	47.95528
457.731	47.79098
458.175	48.07767
458.62	47.87182
459.064	47.9448
459.509	47.92278
459.953	48.29947
460.398	48.04082
460.842	48.43931
461.286	48.49869
461.73	48.48187
462.174	48.46747
462.619	48.63241
463.063	48.53503
463.507	48.24524
463.951	48.58276
464.394	49.06554
464.838	49.21372
465.282	48.9824
465.726	48.92443
466.17	49.48788
466.613	49.60496
467.057	49.76972
467.5	50.00174
467.944	49.9505
468.387	50.476
468.831	50.51089
469.274	51.04192
469.717	51.27358
470.16	51.2225
470.603	51.40325
471.047	51.37978
471.49	51.67283
471.933	51.8823
472.376	52.12244
472.818	52.13889
473.261	52.5586
473.704	52.83952
474.147	52.89492
474.59	53.14968
475.032	53.30206
475.475	53.3031
475.917	53.5981
476.36	53.53451
476.802	54.47604
477.245	54.27484
477.687	54.9268
478.129	54.57407
478.571	54.9149
479.013	54.66043
479.456	54.93622
479.898	55.07341
480.34	55.58431
480.782	55.53033
481.224	55.93246
481.665	56.1799
482.107	56.22466
482.549	56.53919
482.991	57.0317
483.432	56.96102
483.874	57.18779
484.315	57.3565
484.757	57.37
485.198	57.06997
485.64	57.73194
486.081	57.74307
486.522	58.25155
486.963	58.45979
487.405	58.27625
487.846	58.42054
488.287	58.68911
488.728	58.96066
489.169	59.2677
489.61	59.32806
490.05	58.95202
490.491	59.25754
490.932	59.18223
491.373	59.40356
491.813	59.16095
492.254	59.31201
492.694	59.5481
493.135	59.71129
493.575	60.03298
494.016	59.81056
494.456	59.83823
494.896	60.3164
495.336	60.88303
495.777	60.97708
496.217	60.82869
496.657	61.36272
497.097	60.85702
497.537	60.84625
497.977	61.60564
498.416	61.05065
498.856	61.31521
499.296	62.20524
499.736	61.89267
500.175	61.86113
500.615	62.18643
501.054	62.21026
501.494	62.26643
501.933	62.15483
502.373	62.67373
502.812	63.07891
503.251	63.59628
503.69	63.43708
504.129	64.15867
504.569	64.28597
505.008	63.88797
505.447	64.18409
505.886	64.87198
506.324	64.90248
506.763	65.09274
507.202	65.10326
507.641	65.25266
508.079	65.83073
508.518	66.08658
508.957	65.81041
509.395	65.85946
509.834	66.87524
510.272	66.63853
510.71	67.21753
511.149	67.17285
511.587	67.48115
512.025	67.91962
512.463	67.95015
512.901	68.56805
513.339	68.20432
513.777	68.58931
514.215	69.02043
514.653	69.88623
515.091	70.1988
515.529	69.49119
515.966	70.11355
516.404	70.97639
516.842	70.9705
517.279	70.60417
517.717	71.29748
518.154	71.74302
518.592	71.47875
519.029	72.10999
519.466	72.18382
519.904	72.0352
520.341	72.73411
520.778	73.25138
521.215	73.09943
521.652	74.17998
522.089	74.06276
522.526	73.70023
522.963	73.92579
523.399	74.28328
523.836	74.44856
524.273	75.10259
524.71	75.747
525.146	75.90027
525.583	76.39118
526.019	76.34558
526.456	77.05235
526.892	77.05688
527.328	76.82651
527.765	76.56721
528.201	77.06522
528.637	77.29214
529.073	78.03049
529.509	78.31303
529.945	77.90778
530.381	78.21854
530.817	79.18146
531.253	78.8351
531.689	79.23838
532.124	78.49628
532.56	79.39823
532.996	79.71754
533.431	80.35215
533.867	80.63497
534.302	80.22489
534.738	80.0038
535.173	81.18582
535.608	81.31586
536.044	81.1485
536.479	81.63113
536.914	81.7613
537.349	81.84842
537.784	82.25103
538.219	81.88516
538.654	82.03908
539.089	81.73479
539.524	82.12931
539.959	82.44955
540.393	81.52168
540.828	82.48856
541.263	82.4048
541.697	82.5513
542.132	83.04945
542.566	83.14543
543.001	82.85285
543.435	82.51206
543.869	82.53432
544.303	82.80846
544.738	83.03841
545.172	82.18552
545.606	82.8296
546.04	82.95978
546.474	82.30333
546.908	82.47877
547.342	82.76818
547.775	82.84221
548.209	82.57962
548.643	82.8574
549.077	82.31078
549.51	82.24013
549.944	82.08179
550.377	81.87204
550.811	81.66479
551.244	81.88261
551.677	81.42235
552.111	81.42876
552.544	80.96571
552.977	80.76298
553.41	81.17166
553.843	80.92518
554.276	80.43824
554.709	80.70092
555.142	80.06595
555.575	80.59452
556.008	80.54572
556.44	80.21651
556.873	79.68989
557.306	79.73717
557.738	79.15879
558.171	78.48484
558.603	78.84294
559.036	78.31323
559.468	77.71403
559.9	78.04406
560.333	77.09374
560.765	77.47653
561.197	77.28967
561.629	76.87154
562.061	76.96654
562.493	75.88956
562.925	76.20098
563.357	75.25004
563.789	75.69054
564.22	75.22548
564.652	75.08199
565.084	75.87152
565.515	74.8176
565.947	74.93847
566.378	74.17288
566.81	73.81594
567.241	73.25986
567.672	73.68665
568.104	72.98055
568.535	72.99044
568.966	72.17951
569.397	71.98391
569.828	71.88716
570.259	72.04541
570.69	71.2561
571.121	71.08285
571.552	71.09857
571.983	70.57864
572.414	70.24761
572.844	70.10475
573.275	69.61359
573.705	70.04071
574.136	69.85265
574.566	69.68383
574.997	68.59082
575.427	68.76575
575.857	68.52901
576.288	68.48558
576.718	67.91371
577.148	67.75139
577.578	67.40028
578.008	67.4663
578.438	66.8153
578.868	66.45965
579.298	66.47717
579.728	66.02765
580.157	65.74344
580.587	65.9221
581.017	65.63389
581.446	64.84406
581.876	64.87749
582.305	64.27228
582.735	64.1519
583.164	63.31092
583.593	63.60757
584.023	62.68669
584.452	63.25823
584.881	62.69596
585.31	62.48534
585.739	62.57203
586.168	62.64265
586.597	62.27406
587.026	62.30913
587.455	62.1768
587.884	61.58961
588.312	61.33924
588.741	60.97051
589.17	60.89074
589.598	60.34846
590.027	60.21293
590.455	59.82906
590.884	59.59541
591.312	59.64428
591.74	59.02336
592.168	58.92696
592.597	58.55609
593.025	58.19762
593.453	57.97725
593.881	58.03007
594.309	57.53885
594.737	57.33898
595.165	56.65517
595.592	56.84464
596.02	56.91964
596.448	56.55801
596.875	56.12041
597.303	56.05758
597.73	55.58929
598.158	55.99121
598.585	55.51022
599.013	55.25739
599.44	55.13383
599.867	55.32838
600.294	55.04941
600.722	54.80903
601.149	54.6321
601.576	54.7046
602.003	54.54974
602.43	54.29755
602.856	54.02448
603.283	54.16679
603.71	53.40905
604.137	53.19304
604.563	53.28275
604.99	53.01897
605.416	52.68802
605.843	52.13396
606.269	51.81652
606.696	51.51372
607.122	51.84251
607.548	52.08742
607.975	51.65721
608.401	51.66727
608.827	51.47526
609.253	51.68024
609.679	51.53455
610.105	51.51627
610.531	51.00489
610.956	51.0012
611.382	50.45009
611.808	50.51963
612.234	50.24132
612.659	50.16946
613.085	50.26986
613.51	50.05084
613.936	49.66694
614.361	50.22978
614.786	50.14051
615.212	49.69153
615.637	49.7112
616.062	49.59777
616.487	50.07048
616.912	49.78654
617.337	49.40057
617.762	49.42878
618.187	49.05028
618.612	48.83016
619.037	48.82292
619.461	48.70963
619.886	48.30028
620.311	48.87983
620.735	48.56316
621.16	48.72316
621.584	48.47826
622.008	48.29677
622.433	48.39481
622.857	48.5015
623.281	48.52771
623.705	48.38522
624.13	47.96159
624.554	48.09372
624.978	48.32651
625.402	48.1614
625.826	47.89432
626.249	47.9096
626.673	48.18858
627.097	48.34208
627.521	48.08376
627.944	48.56066
628.368	48.20726
628.791	48.49669
629.215	48.29395
629.638	48.57432
630.061	48.15257
630.485	48.66827
630.908	48.40011
631.331	48.74007
631.754	48.70244
632.177	48.41056
632.6	48.55593
633.023	48.24457
633.446	48.60575
633.869	48.44426
634.292	48.55327
634.715	49.02536
635.137	48.881
635.56	49.41201
635.982	48.78759
636.405	49.24761
636.827	48.95724
637.25	49.30598
637.672	49.44271
638.094	49.89276
638.517	49.31793
638.939	49.96145
639.361	50.1084
639.783	50.02272
640.205	50.1619
640.627	50.01562
641.049	50.5036
641.471	50.64164
641.893	50.95117
642.314	50.4827
642.736	50.92196
643.158	51.09772
643.579	51.32118
644.001	51.14033
644.422	51.23291
644.844	51.71928
645.265	51.69672
645.686	51.57793
646.107	51.85705
646.529	52.04204
646.95	51.8739
647.371	52.41099
647.792	52.25105
648.213	52.9807
648.634	52.93856
649.055	52.94629
649.475	53.21361
649.896	53.76788
650.317	53.05747
650.737	54.18024
651.158	54.68371
651.578	54.57458
651.999	55.3095
652.419	54.70237
652.84	54.71215
653.26	55.00548
653.68	55.60767
654.1	55.27938
654.521	55.22587
654.941	55.60423
655.361	55.91587
655.781	56.30818
656.2	56.5097
656.62	56.67465
657.04	56.925
657.46	57.41406
657.879	57.52016
658.299	57.81146
658.719	57.61945
659.138	57.54791
659.558	58.27512
659.977	58.38753
660.396	58.24182
660.816	58.76695
661.235	58.49356
661.654	58.69698
662.073	59.23141
662.492	59.57755
662.911	60.0537
663.33	60.60292
663.749	59.87607
664.168	61.09232
664.587	60.2664
665.006	60.20161
665.424	60.81299
665.843	60.25679
666.261	60.8474
666.68	60.78323
667.098	60.98848
667.517	61.29456
667.935	61.47065
668.353	61.92976
668.772	61.88204
669.19	61.90919
669.608	62.04774
670.026	62.25872
670.444	62.39172
670.862	62.54552
671.28	62.23164
671.698	62.17922
672.115	62.2925
672.533	62.81039
672.951	62.61661
673.368	62.61773
673.786	62.08772
674.203	62.21286
674.621	63.19008
675.038	62.74603
675.456	62.96773
675.873	62.66023
676.29	62.82343
676.707	63.09923
677.124	62.63753
677.541	62.83074
677.958	62.46034
678.375	62.75272
678.792	62.41263
679.209	62.07725
679.626	62.93557
680.043	62.82683
680.459	63.27111
680.876	62.66592
681.292	62.8499
681.709	63.85025
682.125	62.7056
682.542	63.39175
682.958	62.30135
683.374	62.46585
683.79	62.72439
684.207	62.48432
684.623	62.74957
685.039	62.73846
685.455	61.9611
685.871	62.25439
686.286	62.00819
686.702	62.1113
687.118	62.00038
687.534	62.05576
687.949	61.60048
688.365	61.52299
688.781	60.83365
689.196	61.37618
689.611	61.00293
690.027	61.02769
690.442	60.54887
690.857	60.36711
691.273	60.02948
691.688	60.29373
692.103	60.34052
692.518	59.64854
692.933	60.25113
693.348	59.25454
693.763	59.45559
694.177	59.07334
694.592	58.94304
695.007	59.15233
695.421	58.44857
695.836	58.78165
696.25	58.00148
696.665	57.80131
697.079	56.93435
697.494	57.91367
697.908	56.90034
698.322	57.2674
698.736	56.62396
699.151	56.4818
699.565	56.58655
699.979	55.78859
700.393	55.98405
700.806	54.95862
701.22	55.67723
701.634	55.11975
702.048	55.20066
702.461	54.08943
702.875	54.26767
703.289	53.65142
703.702	54.03009
704.116	53.62526
704.529	53.54947
704.942	53.27767
705.356	53.21969
705.769	52.53551
706.182	52.27012
706.595	52.06436
707.008	51.38028
707.421	51.53211
707.834	51.00453
708.247	51.17071
708.66	49.99697
709.072	50.53041
709.485	49.89263
709.898	50.12252
710.31	49.07216
710.723	49.323
711.135	48.71724
711.548	48.61184
711.96	48.33884
712.373	48.23802
712.785	47.63067
713.197	47.80992
713.609	47.0642
714.021	47.08894
714.433	46.26197
714.845	46.71384
715.257	45.89532
715.669	45.89833
716.081	45.44443
716.493	45.13612
716.904	45.19417
717.316	44.25045
717.727	44.4876
718.139	43.76965
718.55	43.89602
718.962	42.99597
719.373	43.45711
719.784	42.66326
720.196	42.64363
720.607	41.97943
721.018	42.05654
721.429	41.23966
721.84	41.59674
722.251	40.88848
722.662	41.61766
723.073	40.14268
723.483	40.32385
723.894	39.63444
724.305	40.05788
724.715	39.08784
725.126	39.59574
725.536	38.53803
725.947	38.95957
726.357	38.02643
726.768	38.42128
727.178	37.76435
727.588	38.20581
727.998	37.19186
728.408	37.23586
728.818	36.85032
729.228	37.16228
729.638	36.55385
730.048	36.87649
730.458	35.90496
730.868	36.11504
731.277	35.4203
731.687	35.37453
732.097	35.49177
732.506	35.34923
732.916	35.03026
733.325	34.92264
733.734	34.75185
734.144	34.55921
734.553	34.33323
734.962	34.04907
735.371	34.11363
735.78	33.46726
736.189	33.50414
736.598	33.41756
737.007	33.33876
737.416	32.56725
737.825	32.79797
738.233	32.13381
738.642	32.70887
739.051	32.09667
739.459	32.50744
739.868	31.6798
740.276	32.17627
740.684	31.39318
741.093	31.73457
741.501	31.3426
741.909	31.46556
742.317	30.99454
742.725	31.10128
743.133	30.8277
743.541	30.70209
743.949	30.77382
744.357	30.4885
744.765	30.74644
745.173	29.90969
745.58	30.80108
745.988	29.35272
746.396	30.40589
746.803	29.23819
747.211	29.89517
747.618	29.3195
748.025	29.60533
748.433	29.10253
748.84	29.07709
749.247	28.71331
749.654	28.69695
750.061	28.67219
750.468	28.3923
750.875	28.5564
751.282	28.17034
751.689	28.46777
752.096	27.99879
752.502	28.31328
752.909	27.6409
753.316	28.57226
753.722	27.83333
754.129	27.97351
754.535	27.86138
754.941	27.5619
755.348	28.07431
755.754	27.33832
756.16	28.34869
756.566	27.38955
756.972	27.92595
757.378	26.99666
757.784	27.34485
758.19	26.74934
758.596	27.19965
759.002	26.997
759.408	26.79006
759.813	27.03592
760.219	26.69852
760.624	27.25385
761.03	26.54737
761.435	26.56219
761.841	25.87936
762.246	26.41009
762.651	25.93843
763.057	26.20538
763.462	27.0483
763.867	26.53215
764.272	27.08169
764.677	26.79818
765.082	26.95517
765.487	26.56353
765.892	26.93254
766.296	26.39841
766.701	26.4639
767.106	26.60791
767.51	25.96547
767.915	26.66264
768.319	25.82595
768.724	26.2072
769.128	26.04514
769.532	25.88761
769.936	25.94379
770.341	25.95858
770.745	26.00212
771.149	25.49096
771.553	26.08907
771.957	25.62844
772.361	25.73866
772.764	25.82591
773.168	25.41886
773.572	25.9773
773.976	25.11182
774.379	25.82369
774.783	25.02526
775.186	25.60921
775.59	25.51505
775.993	25.10349
776.396	25.59419
776.8	25.11852
777.203	25.91068
777.606	25.32501
778.009	25.35927
778.412	25.80279
778.815	25.02703
779.218	25.56668
779.621	24.9225
780.023	25.79799
780.426	25.50104
780.829	25.80435
781.231	25.29552
781.634	25.3546
782.036	26.23954
782.439	25.63728
782.841	25.74163
783.244	25.44928
783.646	25.31086
784.048	26.03955
784.45	25.0903
784.852	25.80889
785.254	25.75627
785.656	25.77865
786.058	25.54487
786.46	25.45021
786.862	25.37419
787.264	24.85384
787.665	25.47817
788.067	25.39483
788.468	25.57276
788.87	25.6798
789.271	24.81129
789.673	25.60659
790.074	25.06703
790.475	25.76188
790.877	26.09946
791.278	25.50343
791.679	26.2
792.08	25.5453
792.481	25.55632
792.882	26.14085
793.283	25.42909
793.683	25.62777
794.084	25.03443
794.485	25.42881
794.886	25.15048
795.286	25.12497
795.687	25.81505
796.087	24.91937
796.487	25.5744
796.888	25.56772
797.288	25.16245
797.688	25.52335
798.088	25.15096
798.489	25.17146
798.889	25.61995
799.289	25.27228
799.689	25.64224
800.088	24.8027
800.488	25.70249
800.888	25.62289
801.288	25.26163
801.687	26.01987
802.087	25.45804
802.486	26.02055
802.886	25.88146
803.285	25.60081
803.685	26.5014
804.084	26.00775
804.483	26.47395
804.882	26.01061
805.281	25.17372
805.68	26.26426
806.079	25.82499
806.478	26.39978
806.877	25.92515
807.276	25.41712
807.675	26.04129
808.074	25.96957
808.472	26.27887
808.871	26.27151
809.269	25.81855
809.668	26.47724
810.066	26.25573
810.465	26.18229
810.863	26.17717
811.261	26.07764
811.659	26.22386
812.057	26.56779
812.455	26.18388
812.853	26.15799
813.251	26.18627
813.649	26.34444
814.047	26.28463
814.445	25.76847
814.843	26.85584
815.24	26.33297
815.638	26.1544
816.035	26.42709
816.433	25.91926
816.83	26.28729
817.228	26.11613
817.625	26.13595
818.022	26.8182
818.419	26.29256
818.816	26.77786
819.213	26.62463
819.61	26.30742
820.007	26.89581
820.404	26.75031
820.801	26.87489
821.198	27.59627
821.595	26.88573
821.991	27.35397
822.388	28.02378
822.784	27.44376
823.181	28.20379
823.577	28.23735
823.974	28.16633
824.37	28.28941
824.766	28.25222
825.162	27.7605
825.558	27.98001
825.954	27.37194
826.35	28.14869
826.746	28.07364
827.142	27.67307
827.538	28.65015
827.934	28.02974
828.33	28.13465
828.725	28.05522
829.121	27.71301
829.516	27.77498
829.912	27.98069
830.307	27.30985
830.703	27.6157
831.098	27.43771
831.493	27.22065
831.888	27.59647
832.283	27.23037
832.678	27.40867
833.073	28.03756
833.468	27.3429
833.863	27.88971
834.258	28.02349
834.653	27.53718
835.048	28.36937
835.442	27.67591
835.837	27.51652
836.231	28.28579
836.626	27.92633
837.02	27.24523
837.415	27.7968
837.809	26.86959
838.203	27.75761
838.597	27.29999
838.991	26.65163
839.385	27.68149
839.779	27.62987
840.173	27.34032
840.567	27.90093
840.961	27.6281
841.355	27.75153
841.748	27.67749
842.142	27.68077
842.536	27.76995
842.929	28.6626
843.323	27.91974
843.716	27.54343
844.109	27.91209
844.503	27.88177
844.896	28.32784
845.289	27.81897
845.682	27.75305
846.075	28.38907
846.468	28.09658
846.861	28.407
847.254	28.44192
847.647	28.18084
848.04	27.2552
848.432	28.08907
848.825	28.31781
849.217	27.67913
849.61	28.10163
850.002	27.30037
850.395	28.33174
850.787	28.54093
851.179	27.58089
851.572	28.37966
851.964	28.83919
852.356	27.44382
852.748	28.14674
853.14	27.68015
853.532	27.93493
853.924	27.22996
854.315	28.16045
854.707	27.63458
855.099	28.55249
855.491	28.17342
855.882	27.47406
856.274	28.39044
856.665	28.09034
857.056	27.30269
857.448	28.30581
857.839	28.1416
858.23	27.9173
858.621	28.17867
859.012	28.11204
859.403	28.03152
859.794	28.67333
860.185	27.96433
860.576	27.64101
860.967	28.77384
861.358	27.64255
861.748	28.13325
862.139	27.39063
862.529	27.40743
862.92	27.53908
863.31	28.46058
863.701	27.14013
864.091	26.96112
864.481	28.16123
864.872	28.49852
865.262	27.55584
865.652	27.59217
866.042	27.97164
866.432	27.69077
866.822	27.91482
867.211	27.95022
867.601	27.44944
867.991	28.19815
868.381	28.08734
868.77	27.58486
869.16	28.3151
869.549	27.5337
869.939	27.69357
870.328	28.2399
870.717	27.6793
871.106	27.86322
871.496	27.50125
871.885	27.28226
872.274	27.63331
872.663	27.84151
873.052	28.28653
873.441	27.31128
873.829	28.23328
874.218	27.08055
874.607	26.83983
874.996	27.9107
875.384	27.78737
875.773	26.76811
876.161	27.63675
876.549	27.599
876.938	27.18428
877.326	27.66164
877.714	27.72267
878.102	27.02452
878.491	27.16918
878.879	27.69883
879.267	27.14964
879.655	27.53635
880.042	27.99899
880.43	27.74069
880.818	27.93448
881.206	28.58928
881.593	28.16746
881.981	27.82469
882.368	28.48676
882.756	28.19945
883.143	27.91309
883.53	27.89949
883.918	28.24013
884.305	27.47417
884.692	28.17543
885.079	27.73442
885.466	27.28885
885.853	27.33142
886.24	27.37017
886.627	26.97947
887.014	28.08367
887.4	27.78784
887.787	27.33126
888.174	27.05227
888.56	27.72057
888.947	26.78564
889.333	26.72525
889.719	27.53778
890.106	27.47875
890.492	26.8893
890.878	27.73588
891.264	27.79932
891.65	26.92148
892.036	27.07388
892.422	27.44069
892.808	26.33488
893.194	26.72926
893.58	27.16271
893.965	26.32024
894.351	26.48751
894.736	27.11743
895.122	27.00099
895.507	26.80204
895.893	27.21059
896.278	27.32299
896.663	26.57073
897.049	27.29996
897.434	27.0585
897.819	26.8414
898.204	27.24003
898.589	27.33266
898.974	26.93436
899.359	26.88874
899.743	26.63339
900.128	27.29144
900.513	26.88891
900.897	26.87554
901.282	26.68455
901.667	26.00274
902.051	26.849
902.435	26.96597
902.82	25.85989
903.204	26.11075
903.588	26.94774
903.972	26.97725
904.356	26.94278
904.74	27.42848
905.124	27.23666
905.508	26.83481
905.892	27.21959
906.276	26.96092
906.659	27.33867
907.043	26.68302
907.427	27.53604
907.81	27.43665
908.194	27.45068
908.577	26.84813
908.96	27.40096
909.344	26.64481
909.727	26.66244
910.11	27.2065
910.493	26.56925
910.876	26.21714
911.259	26.30362
911.642	27.10954
912.025	25.19995
912.408	26.08793
912.79	26.27424
913.173	25.76236
913.556	25.91093
913.938	26.66039
914.321	26.38145
914.703	25.71069
915.086	26.54701
915.468	26.76885
915.85	26.18198
916.232	26.36024
916.614	26.71649
916.996	26.20158
917.378	25.94071
917.76	27.12657
918.142	27.03272
918.524	26.34141
918.906	26.26128
919.288	27.12461
919.669	26.55085
920.051	27.26915
920.432	26.40759
920.814	26.44342
921.195	25.69516
921.577	26.15236
921.958	26.63226
922.339	26.66566
922.72	25.66065
923.101	26.4565
923.482	25.876
923.863	25.1512
924.244	25.86862
924.625	26.05951
925.006	26.05982
925.387	26.21887
925.767	25.89523
926.148	26.35907
926.528	26.20329
926.909	25.71498
927.289	25.76997
927.67	25.4079
928.05	24.89201
928.43	25.00561
928.81	26.37526
929.191	25.05121
929.571	24.64744
929.951	25.51379
930.331	25.9869
930.71	25.04327
931.09	25.56427
931.47	25.82947
931.85	26.28779
932.229	24.94292
932.609	25.26891
932.988	25.76815
933.368	26.26087
933.747	25.21656
934.127	25.4055
934.506	24.92218
934.885	24.58165
935.264	25.75078
935.643	25.92321
936.022	25.11428
936.401	24.83187
936.78	25.97947
937.159	24.54897
937.538	25.24843
937.916	24.90389
938.295	24.29864
938.674	25.33163
939.052	24.20165
939.431	25.26394
939.809	25.44132
940.187	25.18684
940.566	24.09713
940.944	25.07528
941.322	24.72629
941.7	23.0697
942.078	25.33556
942.456	25.59791
942.834	22.42929
943.212	24.01468
943.59	24.34473
943.968	25.1528
944.345	23.28672
944.723	24.2343
945.1	24.22908
945.478	25.14984
945.855	24.52842
946.233	23.1322
946.61	24.0923
946.987	22.91574
947.365	23.77316
947.742	22.88561
948.119	23.63334
948.496	22.80226
948.873	22.43803
949.25	22.44355
949.626	24.13821
950.003	21.72584
950.38	23.08685
950.756	24.3984
951.133	23.41805
951.51	21.99169
951.886	23.61953
952.262	23.35986
952.639	21.56215
953.015	23.44666
953.391	23.37569
953.767	22.66389
954.143	22.07486
954.519	22.65407
954.895	23.32251
955.271	24.46188
955.647	20.90568
956.023	21.72526
956.399	22.57798
956.774	21.30874
957.15	24.13772
957.525	22.8292
957.901	22.12917
958.276	23.46177
958.652	21.6223
959.027	22.09865
959.402	23.30533
959.777	23.90987
960.152	20.3017
960.527	20.98199
960.902	22.71076
961.277	21.63922
961.652	22.63212
962.027	21.03791
962.402	20.55029
962.776	21.73123
963.151	21.19234
963.525	21.98088
963.9	20.37863
964.274	20.81427
964.649	21.25857
965.023	20.78424
965.397	20.47888
965.771	23.42199
966.146	24.14787
966.52	21.56909
966.894	23.3245
967.268	21.24742
967.641	20.82059
968.015	20.68015
968.389	23.42805
968.763	22.93606
969.136	20.83908
969.51	21.15063
969.883	20.55064
970.257	22.44187
970.63	20.98817
971.003	19.55036
971.377	23.70665
971.75	22.98091
972.123	21.9861
972.496	21.58553
972.869	21.50961
973.242	21.93681
973.615	21.41176
973.988	22.21761
974.36	22.22866
974.733	22.38253
975.106	22.43908
975.478	22.80016
975.851	22.98435
976.223	21.27101
976.596	21.74131
976.968	21.21139
977.34	22.95669
977.712	21.29646
978.085	21.81807
978.457	22.52499
978.829	22.5903
979.201	21.82159
979.573	21.82498
979.944	22.38156
980.316	22.3235
980.688	21.71376
981.059	22.20155
981.431	21.84906
981.803	21.00362
982.174	22.15434
982.545	20.70943
982.917	22.49484
983.288	22.33779
983.659	19.98974
984.03	20.97134
984.401	20.11172
984.772	21.24967
985.143	21.59214
985.514	18.59806
985.885	21.32513
986.256	20.29016
986.627	19.50517
986.997	22.01319
987.368	20.99453
987.738	19.86517
988.109	21.71774
988.479	22.00507
988.85	21.05481
989.22	20.85545
989.59	21.97035
989.96	20.83078
990.33	20.56992
990.7	21.05632
991.07	21.42079
991.44	20.3857
991.81	21.64951
992.18	20.68845
992.549	21.53827
992.919	20.2854
993.289	21.8545
993.658	20.68441
994.028	20.83994
994.397	19.63092
994.766	21.19665
995.136	22.36675
995.505	17.86031
995.874	22.66397
996.243	18.64791
996.612	20.80778
996.981	20.99511
997.35	18.93661
997.719	19.30499
998.088	18.2107
998.456	19.81241
998.825	22.66679
999.194	21.28672
999.562	17.52207
999.931	21.07748
1000.299	15.81993
1000.667	17.37536
1001.036	17.10634
1001.404	20.11538
1001.772	20.22559
1002.14	17.57515
1002.508	21.43003
1002.876	16.24606
1003.244	17.69543
1003.612	17.43103
1003.98	17.17411
1004.347	15.14844
1004.715	19.31214
1005.083	14.1231
1005.45	18.75089
1005.818	12.96053
1006.185	18.36044
1006.552	18.80465
1006.92	17.03653
1007.287	17.86696
1007.654	13.89568
1008.021	19.89976
1008.388	15.38839
1008.755	18.30825
1009.122	15.6838
1009.489	17.03818
1009.856	16.8813
1010.222	15.92642
1010.589	17.2895
1010.956	16.05777
1011.322	22.76239
1011.689	15.75201
1012.055	14.16477
1012.421	15.31634
1012.788	14.61557
1013.154	18.01578
1013.52	17.16088
1013.886	15.4705
1014.252	11.98914
1014.618	14.86
1014.984	13.25522
1015.35	14.87118
1015.716	15.97823
1016.081	16.15747
1016.447	16.03288
1016.813	15.10854
1017.178	11.58447
1017.544	15.79937
1017.909	9.9619
1018.274	13.29077
1018.64	13.87701
1019.005	12.29818
1019.37	10.67282
1019.735	17.05496
1020.1	7.03664
1020.465	18.31819
1020.83	16.74722
1021.195	6.09953
1021.56	11.06411
1021.924	14.095
1022.289	17.74911
1022.654	16.1636
1023.018	10.3165
1023.383	10.05401
1023.747	10.62779
1024.111	9.18012
1024.476	7.40015
1024.84	12.29532
1025.204	5.98303
1025.568	6.30174
1025.932	14.38282
1026.296	10.64422
1026.66	4.49486
1027.024	17.33315
1027.387	7.08005
1027.751	9.12295
1028.115	9.37384
1028.478	0.61291
1028.842	0.46473
1029.205	11.12714
1029.569	12.85876
1029.932	3.96876
1030.295	16.18584
1030.659	-5.6554
1031.022	2.06565
1031.385	10.018
1031.748	-4.78057
1032.111	7.06314
1032.474	-0.25556
1032.836	-4.67507
1033.199	7.15779
1033.562	-7.95887
1033.924	13.11482
1034.287	13.04513
1034.65	1.78989
1035.012	-4.60355
1035.374	-1.14206
1035.737	-15.67536
1036.099	4.04739
1036.461	-5.24259
1036.823	-5.27599
1037.185	2.01594
1037.547	2.19301
1037.909	-3.50095
1038.271	16.94701
1038.633	-8.03707
1038.995	6.64085
1039.356	-8.27075
1039.718	0.73762
1040.08	-6.75757
1040.441	1.52014
1040.803	-9.42857
1041.164	-4.67358
1041.525	-5.57309
1041.886	1.14884
1042.248	-1.5617
1042.609	9.20552
1042.97	-3.42994
1043.331	6.00914
1043.692	10.77557
1044.053	-5.76673
1044.413	-6.38976
1044.774	1.97532
1045.135	0.46709
1045.495	-23.51679
1045.856	-8.88545
1046.216	-28.46961
1046.577	4.83702
1046.937	6.60516
1047.298	-7.22638
