Data from 1014water-6_Reflection__6__23-49-35-140.txt Node

Date: Tue Oct 14 23:49:35 AST 2025
User: lin
Spectrometer: SR600411
Trigger mode: 0
Integration Time (sec): 5.910000E-2
Scans to average: 5
Nonlinearity correction enabled: true
Boxcar width: 0
Storing dark spectrum: false
XAxis mode: Wavelengths
Number of Pixels in Spectrum: 2048
>>>>>Begin Spectral Data<<<<<
187.982	54.13724
188.456	37.76524
188.93	34.89052
189.403	44.57067
189.877	40.31767
190.351	39.01769
190.825	37.17892
191.298	29.37663
191.772	25.09964
192.246	28.23379
192.719	29.99294
193.193	39.7095
193.666	33.47444
194.139	38.18656
194.613	51.79495
195.086	38.12461
195.559	40.18156
196.033	43.9842
196.506	45.21964
196.979	51.94877
197.452	46.03673
197.925	47.79621
198.398	51.12568
198.871	47.18911
199.344	47.84727
199.816	46.42884
200.289	48.82448
200.762	35.47407
201.235	30.34779
201.707	16.1632
202.18	7.73975
202.652	18.87679
203.125	25.15132
203.597	36.63522
204.07	14.48938
204.542	24.99614
205.014	2.94041
205.486	45.76769
205.959	8.91468
206.431	9.43217
206.903	18.74663
207.375	33.59449
207.847	21.17086
208.319	36.08416
208.791	-17.85365
209.263	14.72548
209.734	9.99769
210.206	-47.93498
210.678	-2.89774
211.15	12.99777
211.621	-10.22531
212.093	15.26383
212.564	-77.40255
213.036	-2.04041
213.507	23.25126
213.979	-2.77717
214.45	-3.37017
214.921	-4.1312
215.392	-6.77797
215.864	-10.86737
216.335	1.1234
216.806	-43.93115
217.277	43.00625
217.748	4.49363
218.219	14.56057
218.69	-108.14146
219.161	-7.79093
219.631	2.35256
220.102	23.45104
220.573	-12.19291
221.043	-14.89044
221.514	-15.96203
221.985	-11.59244
222.455	4.87692
222.926	21.79224
223.396	-32.57667
223.866	-32.91973
224.337	-5.40415
224.807	-8.04448
225.277	-16.45271
225.747	-10.98682
226.217	-14.65132
226.687	2.38057
227.157	-5.93934
227.627	-38.24886
228.097	12.6565
228.567	14.01614
229.037	-1.04147
229.507	20.78879
229.977	34.77849
230.446	-9.99891
230.916	21.54785
231.386	-76.44794
231.855	-43.38971
232.325	-25.42001
232.794	-53.64519
233.263	11.10918
233.733	8.45955
234.202	10.25499
234.671	-4.59687
235.14	-47.87739
235.61	-8.95393
236.079	-21.58634
236.548	-39.38678
237.017	-25.26903
237.486	-54.82831
237.955	-89.63567
238.424	19.04378
238.892	-11.68632
239.361	-9.85763
239.83	-34.87573
240.299	-27.86026
240.767	-107.12444
241.236	6.89545
241.704	-31.57271
242.173	-19.73329
242.641	-53.01972
243.109	10.0819
243.578	-49.22134
244.046	-67.1733
244.514	-16.4356
244.982	-30.76406
245.451	-53.83764
245.919	0
246.387	-58.91819
246.855	-21.17216
247.323	17.43941
247.791	-4.58612
248.258	0
248.726	-76.65062
249.194	-44.43646
249.662	-26.14961
250.129	-16.27585
250.597	-9.45794
251.064	1.1626
251.532	-33.32701
251.999	-69.37637
252.467	-39.42892
252.934	29.02973
253.401	-64.36834
253.869	-2.49959
254.336	0
254.803	-21.04977
255.27	26.59212
255.737	-1.47039
256.204	-47.87739
256.671	-44.43646
257.138	-28.40275
257.605	-41.99411
258.072	-40.53222
258.539	-69.54913
259.005	12.49827
259.472	-31.87832
259.939	22.05651
260.405	-72.90471
260.872	-7.79093
261.338	-113.70098
261.805	14.283
262.271	-161.66282
262.737	25.71032
263.203	-4.38493
263.67	-75.98678
264.136	7.33799
264.602	8.23403
265.068	-107.48237
265.534	-77.07038
266	-158.10483
266.466	-25.75335
266.932	-42.85206
267.398	-63.06371
267.864	-21.91396
268.329	-47.61029
268.795	-258.56758
269.261	-11.59244
269.726	-44.60709
270.192	-17.49675
270.657	-15.87072
271.123	-9.70657
271.588	14.28453
272.053	-13.57777
272.519	-30.42936
272.984	-27.58217
273.449	-85.70547
273.914	-34.77409
274.379	-20.68536
274.844	-8.21789
275.309	4.28515
275.774	-29.78364
276.239	33.32714
276.704	-19.1447
277.169	-51.07293
277.634	-19.27333
278.098	-34.8232
278.563	-52.93301
279.028	14.11561
279.492	-51.10424
279.957	19.67023
280.421	-20.92808
280.886	3.99924
281.35	-9.41003
281.814	3.36058
282.279	-24.38533
282.743	36.62903
283.207	-170.23665
283.671	-88.03776
284.135	11.10971
284.599	-8.33226
285.063	-21.30836
285.527	-58.81097
285.991	-99.98181
286.455	5.35658
286.919	-26.92132
287.382	-20.5849
287.846	-34.6082
288.31	6.38187
288.773	-111.7488
289.237	-42.17991
289.7	-56.70464
290.164	-17.80519
290.627	-65.50481
291.09	-24.99506
291.554	-32.19843
292.017	34.61422
292.48	32.89142
292.943	-19.99786
293.406	-17.30561
293.869	-18.44215
294.332	-59.17455
294.795	29.26494
295.258	-14.92311
295.721	-122.89068
296.184	3.92119
296.646	21.30945
297.109	10.30751
297.572	-599.88375
298.034	-43.9906
298.497	-87.21888
298.959	-2166.37545
299.422	-65.20759
299.884	-60.45687
300.346	-129.97046
300.809	-124.30395
301.271	-19.22723
301.733	-46.56549
302.195	-66.0593
302.657	8.33188
303.119	-41.54949
303.581	-159.23725
304.043	4.1661
304.505	-17.16778
304.967	-49.98845
305.429	10.67767
305.891	-11.76294
306.352	-1.6127
306.814	37.0333
307.275	-13.04147
307.737	-5.26233
308.198	5.19406
308.66	-6.05977
309.121	-18.91563
309.583	-23.07473
310.044	-120.67438
310.505	13.0409
310.966	-37.28216
311.428	-26.31204
311.889	4.61482
312.35	39.72258
312.811	-149.9837
313.272	-76.9126
313.733	-36.83264
314.193	979.66508
314.654	-29.22592
315.115	-89.73046
315.576	-112.22184
316.036	-55.37357
316.497	-272.6831
316.957	-528.52547
317.418	-31.81636
317.878	-44.89166
318.339	-14.28458
318.799	15.8515
319.259	0
319.72	1.2498
320.18	-15.25219
320.64	-69.99295
321.1	-20.36775
321.56	-15.51519
322.02	-67.33602
322.48	-8.98704
322.94	-138.44457
323.4	15.99867
323.86	-13.09278
324.319	-199.98697
324.779	-12.49755
325.239	-8.69436
325.698	5.88142
326.158	6.38242
326.617	-22.80387
327.077	-35.71026
327.536	-93.16617
327.996	24.04778
328.455	-2.4996
328.914	-43.38971
329.373	9.08983
329.832	-3.48776
330.292	-23.65054
330.751	-14.70362
331.21	-84.98758
331.668	-21.86995
332.127	28.17742
332.586	5.45398
333.045	1.08676
333.504	-55.31118
333.962	-56.70466
334.421	-53.33091
334.88	-134.01344
335.338	-52.07582
335.797	-31.50087
336.255	-74.58694
336.714	-17.52182
337.172	4.27256
337.63	-36.72983
338.088	-4.6286
338.547	-17.45777
339.005	33.73127
339.463	-7.40571
339.921	11.93891
340.379	-77.53768
340.837	-24.3543
341.295	-8.77086
341.753	-47.26517
342.21	-89.07259
342.668	-52.62251
343.126	-31.42286
343.584	-42.15885
344.041	16.85147
344.499	-8.97285
344.956	26.41306
345.414	0.90071
345.871	-126.64116
346.328	-65.1375
346.786	-48.20638
347.243	-67.98871
347.7	-36.50174
348.157	-12.9614
348.614	-19.99668
349.071	16.21423
349.528	-1666.49196
349.985	-2.45841
350.442	-95.36069
350.899	1.44908
351.356	-39.9917
351.812	-15.05058
352.269	15.149
352.726	-64.99153
353.182	-70.30813
353.639	-10.71232
354.095	-6.49245
354.552	-26.46609
355.008	-86.42191
355.465	-11.59244
355.921	14.77054
356.377	-19.99574
356.833	11.2662
357.289	7.22782
357.745	-19.56096
358.201	-51.37783
358.657	17.16893
359.113	20.99672
359.569	9.47207
360.025	14.96229
360.481	6.48019
360.937	11.90302
361.392	36.79894
361.848	-7.99787
362.303	-3.02949
362.759	32.10541
363.214	38.04258
363.67	25.51363
364.125	29.85513
364.581	44.09367
365.036	33.45863
365.491	18.67315
365.946	33.6876
366.401	47.35348
366.856	41.26262
367.311	36.48819
367.766	41.74081
368.221	26.54411
368.676	41.35096
369.131	48.92514
369.586	52.36874
370.041	42.99087
370.495	46.03165
370.95	47.93739
371.404	50.98057
371.859	47.07769
372.313	48.41526
372.768	49.254
373.222	48.68021
373.676	51.40009
374.131	47.81354
374.585	52.21051
375.039	52.06397
375.493	54.26994
375.947	57.8246
376.401	54.88165
376.855	54.4917
377.309	58.57332
377.763	56.36107
378.217	53.37754
378.67	53.00122
379.124	54.03673
379.578	55.05132
380.031	54.77397
380.485	54.05137
380.938	52.97633
381.392	55.15441
381.845	54.002
382.299	55.31362
382.752	56.10152
383.205	55.3932
383.658	56.47847
384.111	55.58746
384.564	56.39719
385.018	55.63507
385.471	55.48106
385.923	54.84129
386.376	57.65025
386.829	56.21759
387.282	57.74166
387.735	55.87324
388.187	57.31006
388.64	57.32865
389.093	57.21282
389.545	58.25383
389.998	57.42698
390.45	58.00284
390.902	57.44869
391.355	57.67791
391.807	58.34622
392.259	58.22935
392.711	57.41626
393.163	58.33451
393.615	57.88098
394.068	57.8309
394.519	58.06621
394.971	56.94993
395.423	58.58867
395.875	58.96805
396.327	57.48746
396.779	56.91721
397.23	58.13644
397.682	57.66291
398.133	57.68942
398.585	57.72768
399.036	57.57806
399.488	57.84184
399.939	57.87665
400.39	56.81529
400.842	58.04312
401.293	57.66134
401.744	56.84964
402.195	57.30908
402.646	56.78879
403.097	57.33949
403.548	57.29468
403.999	57.06326
404.45	57.24354
404.9	57.42765
405.351	56.58946
405.802	56.5197
406.253	56.15908
406.703	55.8863
407.154	56.78042
407.604	55.90111
408.055	56.44064
408.505	56.46894
408.955	56.50479
409.406	55.63722
409.856	55.53936
410.306	54.9389
410.756	55.4925
411.206	55.11038
411.656	54.34978
412.106	54.57233
412.556	54.21168
413.006	54.26219
413.456	53.99273
413.905	53.25693
414.355	53.88279
414.805	54.17422
415.254	54.14005
415.704	53.47673
416.153	53.51159
416.603	53.69522
417.052	53.07064
417.502	52.46849
417.951	52.54227
418.4	52.33765
418.849	52.49989
419.298	51.75617
419.748	52.565
420.197	52.43877
420.646	51.75871
421.094	51.80949
421.543	51.18398
421.992	51.16749
422.441	51.39707
422.89	51.25449
423.338	51.20734
423.787	51.54014
424.236	50.52152
424.684	50.41923
425.133	50.83968
425.581	50.15412
426.029	50.11913
426.478	50.01632
426.926	49.59684
427.374	49.43697
427.822	49.568
428.27	49.57994
428.718	49.91176
429.166	49.68149
429.614	49.16334
430.062	49.36824
430.51	48.94939
430.958	49.57306
431.406	48.79825
431.853	48.92969
432.301	48.49451
432.749	48.71719
433.196	48.92031
433.644	48.04731
434.091	48.79322
434.538	47.99982
434.986	47.68506
435.433	47.75422
435.88	47.5517
436.327	47.80392
436.775	47.84843
437.222	47.79181
437.669	47.38334
438.116	47.71258
438.563	47.84564
439.009	47.97698
439.456	47.5689
439.903	47.79346
440.35	46.9922
440.796	47.45824
441.243	47.41197
441.689	47.07658
442.136	47.36938
442.582	47.51227
443.029	47.16343
443.475	47.45139
443.921	46.95432
444.368	47.25347
444.814	47.28117
445.26	47.70896
445.706	47.74813
446.152	47.18805
446.598	47.38091
447.044	47.55964
447.49	47.56038
447.936	47.47591
448.381	47.21677
448.827	47.45343
449.273	47.39653
449.718	47.39994
450.164	47.315
450.61	47.54837
451.055	47.49307
451.5	47.33951
451.946	47.91897
452.391	47.60085
452.836	47.31269
453.282	47.71457
453.727	47.4234
454.172	47.76061
454.617	47.4172
455.062	47.59354
455.507	47.59837
455.952	47.62806
456.396	47.66249
456.841	48.09509
457.286	48.04644
457.731	48.09088
458.175	48.08897
458.62	48.06166
459.064	48.09392
459.509	48.19075
459.953	48.04471
460.398	48.34144
460.842	48.52579
461.286	48.97269
461.73	48.64802
462.174	48.79261
462.619	48.85502
463.063	48.60667
463.507	49.03158
463.951	48.97714
464.394	49.21034
464.838	49.56183
465.282	49.61936
465.726	49.79264
466.17	49.98067
466.613	50.14099
467.057	50.14549
467.5	50.37932
467.944	50.34508
468.387	51.01325
468.831	50.96509
469.274	51.70455
469.717	51.59964
470.16	51.66314
470.603	51.83045
471.047	52.00083
471.49	52.32619
471.933	52.47599
472.376	52.90399
472.818	52.75792
473.261	52.9756
473.704	53.2205
474.147	53.26866
474.59	53.70988
475.032	53.58398
475.475	53.37953
475.917	54.01476
476.36	54.37629
476.802	54.66294
477.245	54.93956
477.687	55.73888
478.129	55.22989
478.571	55.70614
479.013	55.57592
479.456	55.97183
479.898	55.88232
480.34	56.32078
480.782	56.47764
481.224	56.6419
481.665	56.86956
482.107	56.9944
482.549	57.1686
482.991	57.383
483.432	57.61494
483.874	57.74138
484.315	57.92995
484.757	57.93721
485.198	58.35841
485.64	58.99189
486.081	58.58467
486.522	58.55901
486.963	58.71775
487.405	58.97535
487.846	58.84319
488.287	59.27671
488.728	59.39706
489.169	59.29242
489.61	59.8506
490.05	59.80773
490.491	59.86879
490.932	59.68016
491.373	59.58136
491.813	59.51905
492.254	59.64724
492.694	60.11568
493.135	60.27395
493.575	60.40761
494.016	60.14514
494.456	60.25942
494.896	60.7302
495.336	60.94603
495.777	61.41202
496.217	61.3259
496.657	61.23665
497.097	60.99873
497.537	61.58711
497.977	61.95588
498.416	61.28847
498.856	62.14022
499.296	61.95694
499.736	62.28632
500.175	62.04477
500.615	61.7466
501.054	62.05854
501.494	62.39234
501.933	63.11871
502.373	63.03673
502.812	62.97722
503.251	63.66032
503.69	63.5551
504.129	64.05628
504.569	64.21992
505.008	63.88237
505.447	64.84749
505.886	65.45494
506.324	65.36037
506.763	65.40459
507.202	65.22549
507.641	65.81188
508.079	66.0078
508.518	66.66737
508.957	66.5948
509.395	66.36829
509.834	67.00584
510.272	66.97585
510.71	67.48407
511.149	67.29523
511.587	68.07415
512.025	67.9916
512.463	67.91512
512.901	68.71282
513.339	69.17146
513.777	69.23368
514.215	69.22231
514.653	69.90328
515.091	70.0919
515.529	69.80165
515.966	70.46836
516.404	71.01969
516.842	71.14971
517.279	71.07256
517.717	71.05801
518.154	71.78564
518.592	71.92188
519.029	72.33172
519.466	72.87648
519.904	72.57269
520.341	73.45697
520.778	73.14295
521.215	73.45046
521.652	73.91914
522.089	73.64164
522.526	73.94094
522.963	74.27339
523.399	74.15626
523.836	75.0741
524.273	75.37187
524.71	75.77961
525.146	75.74067
525.583	75.84262
526.019	76.10056
526.456	76.42587
526.892	76.82124
527.328	76.7498
527.765	76.73662
528.201	77.17278
528.637	77.39964
529.073	77.51648
529.509	78.18434
529.945	78.03014
530.381	78.25883
530.817	79.20429
531.253	78.76852
531.689	79.21066
532.124	78.93916
532.56	79.27482
532.996	79.55106
533.431	79.94713
533.867	81.04033
534.302	79.62804
534.738	80.20706
535.173	80.787
535.608	80.87415
536.044	80.79968
536.479	81.48175
536.914	81.90507
537.349	81.65055
537.784	81.47116
538.219	81.8624
538.654	82.00569
539.089	81.47726
539.524	81.73935
539.959	82.43886
540.393	81.50568
540.828	82.38782
541.263	81.98683
541.697	82.4843
542.132	82.40522
542.566	82.32875
543.001	83.01238
543.435	82.66975
543.869	82.44826
544.303	82.71999
544.738	82.9184
545.172	82.12876
545.606	82.6989
546.04	83.23795
546.474	82.93232
546.908	82.52285
547.342	82.90799
547.775	82.94337
548.209	82.59436
548.643	82.57887
549.077	82.13376
549.51	83.16944
549.944	82.4684
550.377	82.18313
550.811	82.46977
551.244	82.05502
551.677	81.45282
552.111	81.83753
552.544	81.48196
552.977	80.9508
553.41	80.94577
553.843	80.3465
554.276	80.5355
554.709	80.90947
555.142	80.50838
555.575	80.30701
556.008	79.74265
556.44	79.80541
556.873	79.63532
557.306	79.52783
557.738	79.51254
558.171	78.84038
558.603	78.83214
559.036	78.5312
559.468	77.9895
559.9	78.03324
560.333	77.14037
560.765	77.56115
561.197	77.1485
561.629	77.08629
562.061	76.28501
562.493	76.47711
562.925	76.04624
563.357	75.58107
563.789	76.40649
564.22	75.55284
564.652	74.86807
565.084	75.37543
565.515	74.98661
565.947	74.49551
566.378	74.0938
566.81	73.62619
567.241	73.58933
567.672	73.30992
568.104	72.84705
568.535	72.65207
568.966	72.47186
569.397	71.55777
569.828	72.12211
570.259	71.31619
570.69	71.16267
571.121	71.11278
571.552	71.18182
571.983	70.34294
572.414	70.08982
572.844	69.90939
573.275	69.44153
573.705	69.24936
574.136	68.84054
574.566	68.65594
574.997	68.52836
575.427	68.2318
575.857	67.61011
576.288	67.72283
576.718	67.50981
577.148	67.25451
577.578	66.79803
578.008	67.03987
578.438	66.32039
578.868	65.44473
579.298	65.77335
579.728	65.48902
580.157	64.99164
580.587	64.52264
581.017	64.77477
581.446	63.99106
581.876	63.8981
582.305	63.8587
582.735	63.06246
583.164	62.39539
583.593	61.9718
584.023	62.14042
584.452	62.07859
584.881	61.83074
585.31	61.38742
585.739	61.44921
586.168	61.53515
586.597	61.59757
587.026	61.34346
587.455	60.93013
587.884	60.59417
588.312	60.56686
588.741	60.35015
589.17	59.78868
589.598	59.19914
590.027	59.16663
590.455	58.82786
590.884	58.7517
591.312	58.40565
591.74	58.03124
592.168	58.02545
592.597	57.52391
593.025	57.092
593.453	56.78463
593.881	56.88255
594.309	56.48057
594.737	56.54388
595.165	55.51688
595.592	55.35454
596.02	55.71197
596.448	55.46136
596.875	55.29177
597.303	54.81188
597.73	54.38208
598.158	54.74711
598.585	54.44507
599.013	54.09176
599.44	54.19187
599.867	54.11793
600.294	53.78614
600.722	53.40439
601.149	53.41994
601.576	53.10528
602.003	52.88383
602.43	52.90148
602.856	52.85442
603.283	52.44922
603.71	52.23029
604.137	51.98609
604.563	52.18464
604.99	51.82957
605.416	51.44369
605.843	50.7445
606.269	50.80855
606.696	50.53109
607.122	50.807
607.548	50.84953
607.975	50.53579
608.401	50.5454
608.827	50.31211
609.253	50.32826
609.679	49.83721
610.105	50.33031
610.531	49.88562
610.956	49.46453
611.382	49.40016
611.808	49.39461
612.234	49.57871
612.659	49.1194
613.085	48.76895
613.51	48.84154
613.936	48.61172
614.361	48.7642
614.786	48.81422
615.212	48.69445
615.637	48.53331
616.062	48.50627
616.487	48.64188
616.912	48.64441
617.337	48.1229
617.762	48.23862
618.187	47.99846
618.612	47.76922
619.037	47.94986
619.461	47.67572
619.886	47.32914
620.311	47.87135
620.735	47.73688
621.16	47.45252
621.584	47.31774
622.008	47.30428
622.433	47.51696
622.857	47.36075
623.281	47.41478
623.705	47.45711
624.13	47.01407
624.554	47.13778
624.978	47.33396
625.402	47.13213
625.826	47.04806
626.249	47.27622
626.673	47.209
627.097	47.63373
627.521	46.99375
627.944	46.99727
628.368	47.49368
628.791	47.25823
629.215	46.98683
629.638	47.71345
630.061	47.39761
630.485	47.77955
630.908	47.99891
631.331	47.55306
631.754	47.99674
632.177	47.28705
632.6	47.77354
633.023	47.60734
633.446	47.87568
633.869	47.74154
634.292	47.81388
634.715	48.06761
635.137	48.27292
635.56	48.32671
635.982	48.39488
636.405	48.33983
636.827	48.30474
637.25	48.81459
637.672	48.50611
638.094	49.11508
638.517	49.09279
638.939	49.06634
639.361	49.3244
639.783	49.31138
640.205	50.17166
640.627	49.34406
641.049	50.19372
641.471	49.94373
641.893	50.22688
642.314	50.36828
642.736	50.11571
643.158	50.51012
643.579	51.12363
644.001	50.61641
644.422	50.91248
644.844	50.89587
645.265	51.86931
645.686	51.43609
646.107	51.74687
646.529	51.56407
646.95	51.83319
647.371	52.30939
647.792	52.35661
648.213	52.57008
648.634	52.86181
649.055	53.02347
649.475	53.34615
649.896	53.76375
650.317	53.40151
650.737	54.10689
651.158	54.11817
651.578	54.08096
651.999	55.57227
652.419	54.59019
652.84	54.6001
653.26	54.75098
653.68	55.1772
654.1	55.20496
654.521	55.38443
654.941	55.58211
655.361	56.19299
655.781	56.10038
656.2	56.89203
656.62	57.00147
657.04	57.32974
657.46	57.9235
657.879	57.95301
658.299	58.19902
658.719	58.15297
659.138	58.11089
659.558	58.42263
659.977	58.99214
660.396	58.37605
660.816	58.93422
661.235	58.80923
661.654	59.3952
662.073	59.82363
662.492	59.83987
662.911	60.26912
663.33	60.90076
663.749	60.36321
664.168	61.38114
664.587	60.15141
665.006	61.09743
665.424	61.68833
665.843	61.21606
666.261	61.50798
666.68	61.51458
667.098	61.79253
667.517	61.92837
667.935	62.46103
668.353	62.90157
668.772	62.46515
669.19	62.51824
669.608	63.22984
670.026	63.43168
670.444	63.08676
670.862	63.29068
671.28	63.23292
671.698	63.29932
672.115	63.39143
672.533	63.64182
672.951	63.0105
673.368	63.79332
673.786	63.65045
674.203	63.65324
674.621	63.68624
675.038	64.29744
675.456	64.22432
675.873	63.56281
676.29	64.36719
676.707	63.90914
677.124	63.48444
677.541	63.89779
677.958	63.65114
678.375	64.25766
678.792	63.92794
679.209	63.24733
679.626	64.04995
680.043	64.03325
680.459	64.44857
680.876	63.82986
681.292	63.77011
681.709	64.65445
682.125	63.97889
682.542	64.70068
682.958	63.95058
683.374	63.95551
683.79	63.73375
684.207	64.12355
684.623	64.26278
685.039	63.49836
685.455	63.36472
685.871	63.06612
686.286	63.04225
686.702	62.85841
687.118	63.12885
687.534	63.09301
687.949	62.79215
688.365	62.42631
688.781	62.3815
689.196	62.69009
689.611	62.15203
690.027	62.4851
690.442	61.42993
690.857	60.88332
691.273	61.42746
691.688	61.59811
692.103	61.89248
692.518	61.09219
692.933	61.17595
693.348	60.50716
693.763	60.79899
694.177	60.71199
694.592	60.11258
695.007	60.57417
695.421	59.59406
695.836	59.58937
696.25	59.33577
696.665	59.05579
697.079	58.40573
697.494	58.78975
697.908	58.51739
698.322	58.77505
698.736	57.79293
699.151	57.59451
699.565	57.66245
699.979	57.13268
700.393	57.32964
700.806	56.30327
701.22	56.73245
701.634	55.65061
702.048	56.3193
702.461	54.60325
702.875	55.39136
703.289	54.4993
703.702	55.12233
704.116	54.82214
704.529	54.44794
704.942	53.82768
705.356	53.87035
705.769	53.53055
706.182	52.78456
706.595	53.21746
707.008	52.01863
707.421	52.27961
707.834	51.54364
708.247	51.45731
708.66	50.93389
709.072	51.31035
709.485	50.41521
709.898	50.7252
710.31	49.90684
710.723	50.66754
711.135	49.42595
711.548	49.41896
711.96	49.28608
712.373	49.01874
712.785	48.61829
713.197	48.06746
713.609	47.6092
714.021	47.93151
714.433	46.99854
714.845	47.19745
715.257	47.01465
715.669	46.64786
716.081	46.37167
716.493	45.38154
716.904	45.30281
717.316	44.50047
717.727	45.03869
718.139	44.21018
718.55	44.31517
718.962	43.57911
719.373	43.85934
719.784	42.82546
720.196	43.23333
720.607	42.76496
721.018	42.61329
721.429	41.75247
721.84	42.11694
722.251	41.14666
722.662	41.59493
723.073	40.56345
723.483	40.57287
723.894	40.01078
724.305	40.70732
724.715	39.51469
725.126	39.96356
725.536	38.96642
725.947	39.22567
726.357	38.42953
726.768	39.03842
727.178	37.96486
727.588	38.27757
727.998	37.47242
728.408	37.53037
728.818	36.95796
729.228	37.31198
729.638	36.6595
730.048	36.57552
730.458	36.25544
730.868	36.21088
731.277	35.52859
731.687	35.7168
732.097	35.65565
732.506	35.8855
732.916	35.33344
733.325	35.15339
733.734	34.85276
734.144	34.65153
734.553	34.27185
734.962	33.96045
735.371	34.1718
735.78	33.52406
736.189	33.84442
736.598	33.00833
737.007	33.27336
737.416	32.37694
737.825	32.69617
738.233	32.03839
738.642	32.59019
739.051	32.21831
739.459	32.63843
739.868	31.46407
740.276	32.1799
740.684	31.49455
741.093	31.91379
741.501	30.93732
741.909	31.31036
742.317	31.18399
742.725	31.32577
743.133	30.79337
743.541	30.15948
743.949	30.63683
744.357	30.52351
744.765	30.70543
745.173	29.87445
745.58	30.47993
745.988	29.4749
746.396	30.22821
746.803	29.40735
747.211	29.79021
747.618	29.22904
748.025	29.71707
748.433	28.85559
748.84	28.93274
749.247	28.75015
749.654	28.55307
750.061	28.68195
750.468	28.4509
750.875	28.43027
751.282	28.10977
751.689	28.39741
752.096	27.66438
752.502	28.11678
752.909	27.6409
753.316	28.28935
753.722	27.83129
754.129	27.87536
754.535	28.12314
754.941	27.45994
755.348	28.29745
755.754	27.26135
756.16	28.03703
756.566	27.29339
756.972	27.69499
757.378	27.07264
757.784	27.3696
758.19	27.25277
758.596	27.24401
759.002	27.07057
759.408	26.97089
759.813	27.19658
760.219	26.67282
760.624	27.26357
761.03	26.54178
761.435	26.74005
761.841	26.04352
762.246	26.42643
762.651	26.42122
763.057	26.12822
763.462	27.06713
763.867	26.58421
764.272	27.32978
764.677	26.90969
765.082	27.06595
765.487	26.78841
765.892	26.97621
766.296	26.46464
766.701	26.34893
767.106	26.54287
767.51	25.92986
767.915	26.52722
768.319	25.77329
768.724	25.88035
769.128	25.98087
769.532	26.02867
769.936	26.38497
770.341	25.71249
770.745	26.25
771.149	25.30831
771.553	25.87339
771.957	25.32959
772.361	25.89546
772.764	26.2282
773.168	25.31711
773.572	26.06285
773.976	25.65776
774.379	25.60104
774.783	25.32818
775.186	25.59882
775.59	25.25992
775.993	24.92043
776.396	25.52837
776.8	24.85905
777.203	26.02926
777.606	25.54943
778.009	26.13957
778.412	25.60267
778.815	25.15699
779.218	25.95309
779.621	25.1079
780.023	25.83708
780.426	25.59552
780.829	25.77644
781.231	25.76079
781.634	25.33219
782.036	25.78119
782.439	25.36288
782.841	25.5073
783.244	25.57063
783.646	25.72155
784.048	25.96533
784.45	25.00752
784.852	25.63584
785.254	25.74484
785.656	25.94055
786.058	25.83125
786.46	25.05665
786.862	25.42442
787.264	25.06265
787.665	25.41925
788.067	25.25305
788.468	25.29236
788.87	25.53617
789.271	24.9435
789.673	25.57968
790.074	25.25932
790.475	25.25603
790.877	25.96306
791.278	25.38585
791.679	25.5318
792.08	25.32699
792.481	25.65768
792.882	25.70406
793.283	25.12143
793.683	25.4286
794.084	25.01725
794.485	25.51394
794.886	25.23799
795.286	25.28987
795.687	25.70678
796.087	25.06773
796.487	25.53306
796.888	25.39399
797.288	25.1127
797.688	25.61626
798.088	25.14824
798.489	25.50389
798.889	25.03336
799.289	25.30049
799.689	25.6308
800.088	24.74144
800.488	25.94715
800.888	25.72255
801.288	25.15441
801.687	26.09437
802.087	25.4549
802.486	25.86101
802.886	26.35867
803.285	25.53262
803.685	26.13938
804.084	26.02093
804.483	25.98435
804.882	25.88866
805.281	25.1245
805.68	26.20524
806.079	26.00226
806.478	25.61869
806.877	26.10017
807.276	25.57787
807.675	25.49634
808.074	25.54059
808.472	25.67297
808.871	26.16692
809.269	25.36322
809.668	26.09526
810.066	26.24286
810.465	25.75171
810.863	26.29306
811.261	25.85824
811.659	26.43159
812.057	26.35735
812.455	26.03764
812.853	26.3743
813.251	25.91131
813.649	25.754
814.047	26.39591
814.445	25.78025
814.843	26.52499
815.24	26.15512
815.638	26.14372
816.035	26.69391
816.433	25.84185
816.83	26.51157
817.228	26.51432
817.625	25.77611
818.022	26.70823
818.419	26.40257
818.816	26.41575
819.213	26.37702
819.61	26.11845
820.007	26.79376
820.404	26.58237
820.801	26.8259
821.198	27.3773
821.595	26.71929
821.991	27.07104
822.388	27.80948
822.784	27.46111
823.181	27.99125
823.577	28.06522
823.974	27.92947
824.37	28.06813
824.766	27.59065
825.162	27.77201
825.558	27.96467
825.954	26.8344
826.35	27.8046
826.746	27.65196
827.142	27.49582
827.538	28.31861
827.934	27.65973
828.33	27.79323
828.725	27.80298
829.121	27.57516
829.516	27.33962
829.912	27.50234
830.307	27.18275
830.703	27.4251
831.098	27.36129
831.493	27.04577
831.888	27.72528
832.283	26.8649
832.678	27.18461
833.073	27.57837
833.468	27.1975
833.863	27.71535
834.258	28.29872
834.653	27.48271
835.048	28.01722
835.442	27.71503
835.837	27.54122
836.231	27.77704
836.626	27.62319
837.02	27.31287
837.415	27.97671
837.809	27.56193
838.203	27.65627
838.597	27.23433
838.991	26.40842
839.385	27.18195
839.779	27.26346
840.173	27.38945
840.567	27.99972
840.961	27.65437
841.355	27.46168
841.748	27.681
842.142	27.15959
842.536	27.96288
842.929	27.71587
843.323	27.71484
843.716	27.5138
844.109	27.66846
844.503	27.00332
844.896	28.21333
845.289	28.24141
845.682	27.747
846.075	28.55802
846.468	27.85833
846.861	27.27316
847.254	27.69769
847.647	28.02786
848.04	27.22777
848.432	27.85202
848.825	27.64965
849.217	27.0498
849.61	28.6354
850.002	27.95372
850.395	28.04593
850.787	27.85688
851.179	27.78654
851.572	27.47155
851.964	27.78067
852.356	27.31776
852.748	28.21409
853.14	27.69514
853.532	27.26547
853.924	27.84553
854.315	27.93135
854.707	27.64222
855.099	27.91278
855.491	27.98307
855.882	27.42865
856.274	28.06137
856.665	27.87286
857.056	26.83927
857.448	28.46401
857.839	27.81658
858.23	26.91479
858.621	28.47892
859.012	27.59572
859.403	27.02172
859.794	28.20308
860.185	28.29841
860.576	27.67887
860.967	28.10706
861.358	28.10603
861.748	27.43959
862.139	27.88231
862.529	28.24131
862.92	27.54622
863.31	28.65255
863.701	26.6644
864.091	27.07607
864.481	28.03328
864.872	28.57151
865.262	27.67916
865.652	27.44586
866.042	27.66269
866.432	28.34678
866.822	28.08784
867.211	27.85229
867.601	27.56926
867.991	28.23943
868.381	27.87784
868.77	27.28473
869.16	28.24629
869.549	27.43903
869.939	27.35996
870.328	28.21794
870.717	28.01897
871.106	27.73025
871.496	27.93075
871.885	28.21924
872.274	27.62337
872.663	28.47009
873.052	27.26472
873.441	27.43604
873.829	27.50572
874.218	27.29868
874.607	27.21484
874.996	27.36258
875.384	27.35679
875.773	26.93884
876.161	27.01773
876.549	27.44112
876.938	26.81523
877.326	27.62295
877.714	27.77952
878.102	26.74055
878.491	26.84935
878.879	27.35342
879.267	26.82038
879.655	27.45681
880.042	28.10429
880.43	27.67089
880.818	27.93992
881.206	28.31008
881.593	28.13865
881.981	27.7955
882.368	28.56816
882.756	28.32789
883.143	28.00289
883.53	27.81641
883.918	27.71075
884.305	27.60866
884.692	27.42253
885.079	27.54378
885.466	27.39023
885.853	27.44382
886.24	27.70738
886.627	27.24684
887.014	27.96195
887.4	27.55529
887.787	27.36497
888.174	27.15449
888.56	27.51086
888.947	26.96544
889.333	26.9668
889.719	27.1584
890.106	26.89393
890.492	26.78389
890.878	27.18039
891.264	27.52871
891.65	26.86363
892.036	27.26122
892.422	26.77814
892.808	26.40371
893.194	26.28889
893.58	26.95632
893.965	26.55482
894.351	26.27212
894.736	26.9981
895.122	26.85286
895.507	26.3866
895.893	26.98092
896.278	26.95013
896.663	26.71154
897.049	27.12175
897.434	26.84033
897.819	26.8686
898.204	26.89453
898.589	27.12775
898.974	26.94637
899.359	27.17022
899.743	27.26757
900.128	26.70824
900.513	26.44559
900.897	27.30509
901.282	27.06537
901.667	26.04514
902.051	26.75674
902.435	27.01369
902.82	26.20045
903.204	26.21257
903.588	26.84535
903.972	26.97931
904.356	26.51935
904.74	27.08622
905.124	26.70024
905.508	26.61223
905.892	27.07348
906.276	26.7696
906.659	27.48867
907.043	27.23555
907.427	26.34656
907.81	27.34734
908.194	26.99028
908.577	27.37854
908.96	27.02996
909.344	26.526
909.727	26.28656
910.11	26.68275
910.493	26.58111
910.876	26.17685
911.259	25.79929
911.642	26.3215
912.025	25.80774
912.408	26.23439
912.79	25.98019
913.173	25.8855
913.556	25.5549
913.938	26.34927
914.321	25.90977
914.703	25.5501
915.086	26.23927
915.468	26.62834
915.85	26.60169
916.232	26.05535
916.614	26.76529
916.996	26.06544
917.378	25.75287
917.76	26.60926
918.142	26.82403
918.524	25.79215
918.906	26.60742
919.288	26.71516
919.669	26.78236
920.051	26.58757
920.432	26.46462
920.814	26.53797
921.195	26.01503
921.577	26.47695
921.958	26.73461
922.339	25.63656
922.72	26.37106
923.101	26.0106
923.482	26.44975
923.863	25.55156
924.244	25.96889
924.625	25.70257
925.006	25.93884
925.387	26.11315
925.767	26.06398
926.148	26.28638
926.528	25.93605
926.909	25.70574
927.289	25.58693
927.67	24.48466
928.05	25.34473
928.43	25.40597
928.81	26.14096
929.191	24.89716
929.571	24.42023
929.951	25.53204
930.331	26.08979
930.71	24.91473
931.09	25.36746
931.47	25.9723
931.85	25.68376
932.229	25.94352
932.609	25.90782
932.988	24.48886
933.368	25.37277
933.747	25.48917
934.127	26.06016
934.506	26.2012
934.885	24.44897
935.264	26.32365
935.643	26.31391
936.022	24.78984
936.401	25.16299
936.78	26.19696
937.159	24.6322
937.538	24.08779
937.916	25.55027
938.295	25.29346
938.674	24.50985
939.052	24.88197
939.431	24.95174
939.809	25.17399
940.187	25.17235
940.566	23.64929
940.944	24.42221
941.322	25.49877
941.7	23.44649
942.078	24.55102
942.456	24.92473
942.834	24.45505
943.212	23.83983
943.59	23.85096
943.968	23.8619
944.345	23.4826
944.723	24.87926
945.1	22.2494
945.478	23.93388
945.855	23.9043
946.233	23.91054
946.61	24.23736
946.987	23.43137
947.365	22.44536
947.742	23.47069
948.119	22.85602
948.496	23.08102
948.873	22.23199
949.25	23.60054
949.626	22.60153
950.003	23.68897
950.38	23.90541
950.756	24.34542
951.133	22.76205
951.51	21.90143
951.886	23.76347
952.262	24.31561
952.639	22.78535
953.015	23.52551
953.391	22.56869
953.767	20.83037
954.143	22.5276
954.519	23.06101
954.895	23.75745
955.271	22.46768
955.647	22.67823
956.023	22.76656
956.399	22.25026
956.774	22.63086
957.15	24.2751
957.525	22.94296
957.901	24.04746
958.276	22.22836
958.652	21.87224
959.027	22.15936
959.402	23.6895
959.777	23.29346
960.152	20.7114
960.527	19.28484
960.902	21.38294
961.277	21.83739
961.652	21.00884
962.027	21.73126
962.402	21.49319
962.776	22.75484
963.151	19.71356
963.525	23.29301
963.9	20.94079
964.274	19.3303
964.649	21.91693
965.023	21.43558
965.397	20.59828
965.771	22.14625
966.146	21.94164
966.52	21.56909
966.894	23.08142
967.268	20.81317
967.641	22.0797
968.015	21.65765
968.389	23.88974
968.763	20.97721
969.136	21.26101
969.51	21.55319
969.883	22.43561
970.257	20.59703
970.63	22.25406
971.003	22.21414
971.377	23.80242
971.75	21.7755
972.123	22.22628
972.496	21.60958
972.869	22.38822
973.242	21.82282
973.615	21.70716
973.988	23.08552
974.36	21.13921
974.733	22.34248
975.106	20.79288
975.478	23.24208
975.851	20.88254
976.223	21.40375
976.596	20.50701
976.968	21.86208
977.34	22.85069
977.712	21.14356
978.085	21.47351
978.457	21.68966
978.829	22.61878
979.201	21.79141
979.573	21.68451
979.944	22.17905
980.316	21.74075
980.688	22.05487
981.059	21.89368
981.431	22.05295
981.803	20.5154
982.174	20.97463
982.545	20.79226
982.917	21.08788
983.288	21.97611
983.659	21.23134
984.03	20.14515
984.401	20.41355
984.772	22.5869
985.143	22.55702
985.514	19.8973
985.885	21.9231
986.256	21.02389
986.627	22.87911
986.997	22.2992
987.368	20.50674
987.738	21.74285
988.109	20.48727
988.479	20.54785
988.85	20.56421
989.22	20.74527
989.59	21.61055
989.96	20.04375
990.33	20.06014
990.7	19.81419
991.07	20.37068
991.44	20.76039
991.81	21.095
992.18	21.63215
992.549	21.66376
992.919	21.1384
993.289	20.71106
993.658	20.84002
994.028	22.84666
994.397	21.76231
994.766	23.16375
995.136	22.14222
995.505	21.33875
995.874	21.71926
996.243	20.50125
996.612	21.48887
996.981	22.00391
997.35	19.04135
997.719	20.72709
998.088	19.75223
998.456	20.25311
998.825	20.66241
999.194	20.72145
999.562	17.43002
999.931	20.28757
1000.299	16.39083
1000.667	18.05618
1001.036	20.30916
1001.404	18.8775
1001.772	14.48547
1002.14	16.59178
1002.508	16.35337
1002.876	19.03453
1003.244	21.09818
1003.612	16.92184
1003.98	17.93501
1004.347	16.24072
1004.715	20.1145
1005.083	21.951
1005.45	18.47398
1005.818	17.65664
1006.185	19.30599
1006.552	18.54058
1006.92	19.69572
1007.287	15.34266
1007.654	13.29129
1008.021	19.402
1008.388	17.66437
1008.755	17.53152
1009.122	15.82025
1009.489	17.03818
1009.856	19.35626
1010.222	16.50702
1010.589	17.74644
1010.956	15.05372
1011.322	17.97122
1011.689	18.00345
1012.055	15.96114
1012.421	15.31634
1012.788	16.38154
1013.154	17.28011
1013.52	20.56598
1013.886	13.22536
1014.252	11.91177
1014.618	15.02246
1014.984	16.5922
1015.35	15.1337
1015.716	17.59462
1016.081	18.05315
1016.447	17.12025
1016.813	13.16844
1017.178	15.48219
1017.544	17.73461
1017.909	14.6044
1018.274	12.13482
1018.64	14.74452
1019.005	18.81817
1019.37	17.66733
1019.735	22.48339
1020.1	9.20205
1020.465	11.36414
1020.83	9.78066
1021.195	7.62457
1021.56	7.79131
1021.924	9.0386
1022.289	13.19328
1022.654	11.86419
1023.018	10.48846
1023.383	12.16242
1023.747	13.99378
1024.111	8.10001
1024.476	12.21087
1024.84	11.95374
1025.204	15.77511
1025.568	12.41894
1025.932	12.27307
1026.296	10.2707
1026.66	8.58144
1027.024	13.45818
1027.387	6.68669
1027.751	10.86083
1028.115	8.94772
1028.478	11.03354
1028.842	7.66844
1029.205	19.14003
1029.569	16.02123
1029.932	7.23735
1030.295	9.14798
1030.659	4.00623
1031.022	4.13136
1031.385	-4.25717
1031.748	11.47491
1032.111	0
1032.474	1.53337
1032.836	5.25981
1033.199	3.3035
1033.562	-5.01124
1033.924	14.68877
1034.287	13.04513
1034.65	-4.77283
1035.012	5.68716
1035.374	1.71313
1035.737	-9.47088
1036.099	4.35874
1036.461	-8.84669
1036.823	2.48294
1037.185	6.62402
1037.547	-1.25312
1037.909	5.72916
1038.271	3.45831
1038.633	-1.04835
1038.995	6.64085
1039.356	1.0339
1039.718	16.22892
1040.08	9.24803
1040.441	0
1040.803	5.65759
1041.164	-7.19003
1041.525	6.31657
1041.886	-3.44644
1042.248	7.02795
1042.609	4.60263
1042.97	-3.42994
1043.331	14.86554
1043.692	1.11466
1044.053	-6.72782
1044.413	5.93366
1044.774	8.2966
1045.135	-0.93418
1045.495	-29.39523
1045.856	-26.09942
1046.216	-29.73481
1046.577	21.49918
1046.937	-1.32099
1047.298	12.64698
