Data from 1014water-6_Reflection__16__23-51-02-287.txt Node

Date: Tue Oct 14 23:51:02 AST 2025
User: lin
Spectrometer: SR600411
Trigger mode: 0
Integration Time (sec): 5.910000E-2
Scans to average: 5
Nonlinearity correction enabled: true
Boxcar width: 0
Storing dark spectrum: false
XAxis mode: Wavelengths
Number of Pixels in Spectrum: 2048
>>>>>Begin Spectral Data<<<<<
187.982	56.75746
188.456	32.58088
188.93	39.5958
189.403	38.20192
189.877	37.84879
190.351	28.05216
190.825	25.1976
191.298	11.83741
191.772	47.17477
192.246	32.43141
192.719	41.75653
193.193	43.91481
193.666	24.87872
194.139	20.16426
194.613	38.141
195.086	37.27725
195.559	41.4886
196.033	49.52244
196.506	44.69058
196.979	49.42065
197.452	48.3267
197.925	39.05386
198.398	49.3445
198.871	40.20649
199.344	39.67658
199.816	39.68776
200.289	42.6232
200.762	27.6412
201.235	24.09905
201.707	23.94609
202.18	9.67474
202.652	36.3571
203.125	-0.62873
203.597	28.23904
204.07	13.04039
204.542	3.84539
205.014	11.76192
205.486	14.7852
205.959	1.91025
206.431	-7.54547
206.903	34.8164
207.375	-11.19693
207.847	30.5811
208.319	25.5589
208.791	-61.88813
209.263	10.85025
209.734	19.22678
210.206	-62.99889
210.678	-6.51984
211.15	25.9962
211.621	13.63432
212.093	12.21097
212.564	-72.56532
213.036	1.02021
213.507	10.85025
213.979	-26.84459
214.45	-10.1104
214.921	16.52562
215.392	0.84726
215.864	-30.42757
216.335	-3.37017
216.806	-4.54484
217.277	8.60071
217.748	19.0984
218.219	22.32657
218.69	-87.73915
219.161	1.29851
219.631	-37.63836
220.102	14.19363
220.573	-15.85068
221.043	-60.62021
221.514	-21.00243
221.985	-46.36756
222.455	-6.50238
222.926	-8.97285
223.396	-21.34376
223.866	-4.87722
224.337	16.21323
224.807	-29.87838
225.277	-36.70104
225.747	8.78977
226.217	-15.51313
226.687	3.57086
227.157	-13.85824
227.627	-20.86384
228.097	-24.04598
228.567	-23.35838
229.037	-53.10957
229.507	3.95964
229.977	1.08676
230.446	-49.99259
230.916	6.03318
231.386	-64.68799
231.855	-86.77548
232.325	54.23439
232.794	-43.89221
233.263	-31.30508
233.733	5.38331
234.202	-26.91781
234.671	4.59695
235.14	-57.7337
235.61	-67.14931
236.079	-21.58634
236.548	-56.0492
237.017	-27.46623
237.486	6.45087
237.955	-68.95215
238.424	-2.38035
238.892	1.29851
239.361	-26.7558
239.83	-53.47443
240.299	27.04443
240.767	-149.96888
241.236	9.19397
241.704	-59.19638
242.173	-31.57271
242.641	-46.96069
243.109	24.36541
243.578	-50.7594
244.046	-29.68263
244.514	-49.30445
244.982	-73.82965
245.451	-73.06392
245.919	-4.50347
246.387	-112.47351
246.855	0
247.323	-23.25094
247.791	-25.68112
248.258	-37.62488
248.726	-96.64415
249.194	-61.89229
249.662	6.1531
250.129	9.30089
250.597	-33.77717
251.064	-10.46315
251.532	-91.64168
251.999	-99.98063
252.467	-66.18177
252.934	-70.95287
253.401	-84.90892
253.869	-22.49564
254.336	19.35197
254.803	-106.99264
255.27	13.82757
255.737	-20.5849
256.204	-40.837
256.671	-52.37102
257.138	2.27234
257.605	-73.98727
258.072	-56.74376
258.539	-18.83753
259.005	7.4989
259.472	-78.24183
259.939	24.99748
260.405	-114.56001
260.872	-66.21701
261.338	-107.82054
261.805	12.49758
262.271	-134.01342
262.737	25.71032
263.203	18.41767
263.67	-123.97254
264.136	5.50347
264.602	-36.46223
265.068	-122.47846
265.534	-85.40163
266	-102.30798
266.466	-68.16686
266.932	-97.60303
267.398	-16.92054
267.864	-53.41284
268.329	-50.78411
268.795	-413.67135
269.261	-5.79627
269.726	-76.90559
270.192	-47.48891
270.657	-12.69663
271.123	-27.17743
271.588	-69.37637
272.053	-29.62347
272.519	-28.9804
272.984	-120.65913
273.449	-42.85375
273.914	-55.41913
274.379	-24.13277
274.844	16.43637
275.309	-12.85514
275.774	-76.58318
276.239	7.79941
276.704	14.89126
277.169	-53.24603
277.634	12.04645
278.098	-7.86368
278.563	-23.52648
279.028	4.70513
279.492	-93.31728
279.957	-27.86455
280.421	-90.68298
280.886	27.99601
281.35	-35.28609
281.814	-24.36262
282.279	-57.30247
282.743	39.59918
283.207	-194.55272
283.671	-73.11755
284.135	-37.49266
284.599	-33.32806
285.063	-32.78164
285.527	-45.57931
285.991	-132.58065
286.455	-42.85036
286.919	-130.75373
287.382	-23.52551
287.846	-41.01672
288.31	-29.78006
288.773	-211.72032
289.237	0
289.7	-4.47699
290.164	-6.84826
290.627	-68.95216
291.09	-53.73693
291.554	-59.31102
292.017	-257.64502
292.48	-1.31559
292.943	-104.42545
293.406	-46.14691
293.869	7.76553
294.332	-38.7703
294.795	6.09663
295.258	-65.65725
295.721	-95.81554
296.184	-15.68444
296.646	-68.83844
297.109	18.5538
297.572	-349.95641
298.034	-13.33109
298.497	-106.3626
298.959	-1866.44899
299.422	-69.55449
299.884	-72.08248
300.346	-89.98311
300.809	-210.76294
301.271	0
301.733	-12.32677
302.195	-76.77071
302.657	-15.62157
303.119	-23.37223
303.581	-181.45425
304.043	-5.55472
304.505	-22.21691
304.967	-32.04476
305.429	8.73624
305.891	-45.57931
306.352	9.67635
306.814	-16.0464
307.275	-40.57193
307.737	2.63119
308.198	0
308.66	-110.57569
309.121	-28.37305
309.583	-17.94709
310.044	-175.83424
310.505	7.82445
310.966	-23.72539
311.428	-52.62253
311.889	-30.76406
312.35	10.9575
312.811	-140.89433
313.272	-140.99948
313.733	-38.93721
314.193	1044.61647
314.654	-49.22134
315.115	-79.47618
315.576	-71.41672
316.036	-47.68327
316.497	-204.51839
316.957	-171.42214
317.418	-195.42942
317.878	-57.13416
318.339	-51.42318
318.799	-17.06993
319.259	-36.89637
319.72	-6.24895
320.18	-67.78333
320.64	-56.66141
321.1	-12.9614
321.56	-41.3726
322.02	-79.57798
322.48	15.72801
322.94	-157.67142
323.4	-25.99676
323.86	-47.60737
324.319	-454.49069
324.779	-48.85098
325.239	-34.77621
325.698	16.46828
326.158	4.25494
326.617	8.77103
327.077	-49.99377
327.536	-86.34964
327.996	-7.59366
328.455	-6.24895
328.914	-20.75209
329.373	-62.10807
329.832	-17.43838
330.292	-33.32516
330.751	-73.51229
331.21	-134.97494
331.668	-14.58017
332.127	26.35941
332.586	-59.98956
333.045	34.77848
333.504	-125.50564
333.962	-25.36893
334.421	-226.6447
334.88	-55.31118
335.338	-49.99289
335.797	63.01033
336.255	-65.06598
336.714	17.523
337.172	2.56352
337.63	-30.60837
338.088	-21.29079
338.547	-50.78412
339.005	-18.06879
339.463	6.48019
339.921	-62.67308
340.379	-140.78347
340.837	-7.69103
341.295	-35.08238
341.753	-49.08296
342.21	-65.44277
342.668	-49.11454
343.126	-34.27935
343.584	-21.68242
344.041	-38.19297
344.499	-5.12738
344.956	-3.77317
345.414	1.80141
345.871	-115.53342
346.328	-7.5747
346.786	-60.70349
347.243	-75.98678
347.7	-87.28125
348.157	-70.35759
348.614	-17.14008
349.071	-43.23418
349.528	-2199.69975
349.985	13.11201
350.442	-119.96611
350.899	17.38935
351.356	13.33162
351.812	-38.69981
352.269	36.35911
352.726	-44.99485
353.182	-81.29217
353.639	16.66436
354.095	-9.0894
354.552	-49.98993
355.008	-96.58805
355.465	-63.75389
355.921	-45.44304
356.377	36.66255
356.833	-71.81368
357.289	-14.45512
357.745	1.08676
358.201	-62.48557
358.657	-28.27572
359.113	16.99721
359.569	-6.31453
360.025	-2.04021
360.481	21.29273
360.937	-26.18499
361.392	49.29844
361.848	-8.79764
362.303	-7.57363
362.759	40.3618
363.214	42.02453
363.67	16.14071
364.125	25.33112
364.581	17.483
365.036	36.31536
365.491	23.43357
365.946	36.25129
366.401	35.84147
366.856	47.07612
367.311	29.12785
367.766	51.35572
368.221	38.19425
368.676	41.8237
369.131	48.22258
369.586	42.80393
370.041	47.27349
370.495	50.0595
370.95	46.06253
371.404	47.6473
371.859	50.43328
372.313	48.66247
372.768	52.30573
373.222	49.59575
373.676	50.91651
374.131	46.48156
374.585	50.64299
375.039	55.13541
375.493	55.69035
375.947	55.38468
376.401	54.19371
376.855	54.93291
377.309	53.78611
377.763	52.21713
378.217	55.27415
378.67	53.76285
379.124	50.6994
379.578	53.0515
380.031	55.40975
380.485	54.13597
380.938	54.1682
381.392	55.48943
381.845	52.42961
382.299	54.50013
382.752	56.23078
383.205	53.66541
383.658	54.28943
384.111	54.34901
384.564	54.10892
385.018	54.76552
385.471	55.03932
385.923	53.03781
386.376	56.5055
386.829	56.08645
387.282	55.71222
387.735	56.30658
388.187	56.23809
388.64	57.01082
389.093	55.95669
389.545	57.14292
389.998	56.08644
390.45	55.41157
390.902	56.89778
391.355	56.87397
391.807	58.51972
392.259	58.16777
392.711	57.47493
393.163	57.80269
393.615	57.21683
394.068	57.89106
394.519	57.10539
394.971	57.2099
395.423	57.21547
395.875	57.91446
396.327	57.45865
396.779	57.16855
397.23	57.05551
397.682	57.95857
398.133	57.36614
398.585	57.32036
399.036	57.15094
399.488	57.47941
399.939	57.33347
400.39	56.75496
400.842	56.91479
401.293	57.00533
401.744	56.29608
402.195	57.31479
402.646	56.58056
403.097	56.73188
403.548	56.6813
403.999	56.58535
404.45	56.84939
404.9	55.99402
405.351	56.68327
405.802	55.90937
406.253	56.28627
406.703	56.05224
407.154	56.18647
407.604	56.22065
408.055	55.68384
408.505	55.65405
408.955	56.16432
409.406	55.03663
409.856	54.92921
410.306	54.83028
410.756	55.24831
411.206	54.9077
411.656	53.76105
412.106	54.88685
412.556	53.94214
413.006	54.80401
413.456	53.89014
413.905	53.08414
414.355	53.12325
414.805	53.64117
415.254	53.89759
415.704	53.26603
416.153	53.16142
416.603	53.5536
417.052	52.65144
417.502	52.3137
417.951	52.23721
418.4	52.26205
418.849	52.73694
419.298	51.97172
419.748	52.32949
420.197	52.58772
420.646	52.00803
421.094	51.48808
421.543	51.73786
421.992	51.29955
422.441	51.01577
422.89	50.97509
423.338	50.65269
423.787	51.18388
424.236	50.34895
424.684	50.11299
425.133	50.87945
425.581	49.65169
426.029	50.0736
426.478	49.53552
426.926	49.49664
427.374	49.53358
427.822	49.31729
428.27	49.4897
428.718	49.09846
429.166	48.9143
429.614	48.77831
430.062	48.39033
430.51	49.028
430.958	48.51643
431.406	49.00221
431.853	48.77657
432.301	49.27387
432.749	48.37626
433.196	48.15066
433.644	48.03521
434.091	47.86773
434.538	47.7769
434.986	47.82951
435.433	47.54919
435.88	47.14774
436.327	47.35455
436.775	47.71897
437.222	47.71064
437.669	47.65679
438.116	47.38078
438.563	47.13226
439.009	47.27612
439.456	47.16738
439.903	47.09019
440.35	46.73963
440.796	47.08636
441.243	47.28574
441.689	46.90055
442.136	47.00469
442.582	47.28904
443.029	46.9307
443.475	47.29665
443.921	46.9772
444.368	47.20591
444.814	47.40398
445.26	47.31993
445.706	47.33608
446.152	46.52151
446.598	46.95938
447.044	47.17354
447.49	47.25325
447.936	47.06059
448.381	46.79892
448.827	47.10488
449.273	47.23377
449.718	47.21358
450.164	46.92737
450.61	47.09411
451.055	46.99511
451.5	47.60313
451.946	47.10808
452.391	47.34583
452.836	47.74996
453.282	47.20254
453.727	47.64263
454.172	46.86616
454.617	46.88799
455.062	47.31372
455.507	47.33846
455.952	47.1867
456.396	47.10854
456.841	47.30217
457.286	47.58889
457.731	47.30383
458.175	47.80273
458.62	47.43775
459.064	47.83111
459.509	47.61607
459.953	47.72954
460.398	47.80867
460.842	48.28401
461.286	48.00413
461.73	48.25066
462.174	48.24733
462.619	48.34029
463.063	48.4931
463.507	48.28892
463.951	48.5672
464.394	48.70787
464.838	48.90675
465.282	48.97308
465.726	49.30319
466.17	49.39505
466.613	49.95195
467.057	49.48301
467.5	49.92709
467.944	49.91992
468.387	50.68821
468.831	50.28309
469.274	50.72983
469.717	50.95071
470.16	51.02636
470.603	51.44459
471.047	51.45596
471.49	52.0305
471.933	51.79098
472.376	51.92334
472.818	51.92263
473.261	52.06806
473.704	52.35326
474.147	52.23766
474.59	53.20074
475.032	53.12453
475.475	53.26255
475.917	53.13143
476.36	53.77318
476.802	54.13528
477.245	54.06581
477.687	54.65308
478.129	54.48389
478.571	55.06952
479.013	54.74574
479.456	55.05346
479.898	54.99338
480.34	55.87155
480.782	55.76606
481.224	56.29636
481.665	56.07875
482.107	56.44126
482.549	56.62868
482.991	57.07505
483.432	56.9488
483.874	57.74295
484.315	57.38809
484.757	57.33316
485.198	57.34438
485.64	57.87444
486.081	57.45609
486.522	58.50504
486.963	58.25443
487.405	58.05424
487.846	58.42054
488.287	58.48665
488.728	58.39616
489.169	58.79978
489.61	58.77994
490.05	58.66634
490.491	58.86085
490.932	59.21899
491.373	59.01088
491.813	59.40546
492.254	58.93193
492.694	59.72801
493.135	59.66635
493.575	59.64317
494.016	59.56868
494.456	60.18979
494.896	60.48439
495.336	60.55368
495.777	60.40763
496.217	60.83236
496.657	61.17918
497.097	60.85142
497.537	61.09129
497.977	60.96935
498.416	61.26974
498.856	61.61912
499.296	61.52063
499.736	61.60696
500.175	61.21381
500.615	61.59561
501.054	61.6952
501.494	62.0973
501.933	62.4554
502.373	62.43303
502.812	62.95086
503.251	63.14802
503.69	62.96508
504.129	63.34543
504.569	64.00669
505.008	63.25851
505.447	63.95242
505.886	64.38475
506.324	64.52097
506.763	64.7548
507.202	64.76623
507.641	65.09529
508.079	65.09682
508.518	65.94832
508.957	65.37537
509.395	66.09122
509.834	66.73921
510.272	66.55421
510.71	66.73997
511.149	67.05935
511.587	66.76654
512.025	67.35262
512.463	67.41949
512.901	67.84086
513.339	68.31543
513.777	67.79255
514.215	69.28904
514.653	69.0988
515.091	69.39796
515.529	69.54126
515.966	70.12854
516.404	70.09884
516.842	70.8643
517.279	70.71302
517.717	70.93827
518.154	71.12511
518.592	71.39536
519.029	72.0301
519.466	71.97734
519.904	71.93573
520.341	72.81603
520.778	73.04089
521.215	73.00498
521.652	73.62374
522.089	73.67582
522.526	73.3978
522.963	73.66626
523.399	73.82322
523.836	73.7645
524.273	74.46192
524.71	74.52785
525.146	75.00059
525.583	75.39152
526.019	75.82571
526.456	76.37707
526.892	76.29968
527.328	76.17521
527.765	76.73035
528.201	76.68404
528.637	76.91113
529.073	77.18606
529.509	77.58921
529.945	77.87076
530.381	77.86082
530.817	78.68724
531.253	78.64835
531.689	78.94649
532.124	78.94731
532.56	79.45253
532.996	79.58935
533.431	79.65928
533.867	80.54339
534.302	79.73534
534.738	79.91646
535.173	80.6665
535.608	80.32204
536.044	80.15164
536.479	80.47905
536.914	81.18105
537.349	81.5603
537.784	81.29921
538.219	81.29698
538.654	81.90903
539.089	81.44727
539.524	81.72871
539.959	81.79579
540.393	81.08252
540.828	82.36803
541.263	82.01025
541.697	82.07504
542.132	82.39252
542.566	82.37979
543.001	82.77584
543.435	82.7266
543.869	82.26515
544.303	82.54674
544.738	82.99595
545.172	81.77903
545.606	82.49641
546.04	82.25613
546.474	81.88892
546.908	82.36121
547.342	82.56399
547.775	82.39343
548.209	82.04704
548.643	82.25638
549.077	81.77427
549.51	82.47474
549.944	81.7569
550.377	81.31463
550.811	82.25953
551.244	81.83233
551.677	81.63921
552.111	80.61667
552.544	80.41199
552.977	80.74151
553.41	80.96011
553.843	79.95116
554.276	79.88351
554.709	80.09163
555.142	79.88827
555.575	79.78114
556.008	79.31754
556.44	79.19246
556.873	79.12961
557.306	79.44228
557.738	78.99719
558.171	78.1454
558.603	77.8999
559.036	77.67739
559.468	77.72484
559.9	77.35905
560.333	77.25693
560.765	76.91842
561.197	76.8318
561.629	76.78492
562.061	76.48228
562.493	76.52518
562.925	76.09426
563.357	75.28702
563.789	76.02911
564.22	75.07052
564.652	74.51615
565.084	74.85692
565.515	74.45399
565.947	73.98666
566.378	73.69
566.81	73.22341
567.241	73.1149
567.672	72.91202
568.104	72.32772
568.535	72.44323
568.966	71.89363
569.397	71.40718
569.828	71.26066
570.259	71.83318
570.69	70.94732
571.121	70.55666
571.552	71.08915
571.983	70.20184
572.414	70.02794
572.844	69.50792
573.275	69.32886
573.705	68.94256
574.136	68.44957
574.566	68.7773
574.997	68.06139
575.427	67.73338
575.857	67.3205
576.288	67.50722
576.718	66.82308
577.148	66.49694
577.578	66.30531
578.008	66.36282
578.438	65.78975
578.868	65.60108
579.298	65.99891
579.728	65.56882
580.157	64.76229
580.587	64.72677
581.017	64.52691
581.446	63.8792
581.876	63.99144
582.305	63.62817
582.735	63.19551
583.164	62.41328
583.593	62.4405
584.023	62.16917
584.452	62.30079
584.881	61.6727
585.31	61.75018
585.739	61.38067
586.168	61.76894
586.597	61.38209
587.026	61.64445
587.455	60.63987
587.884	60.92776
588.312	60.45673
588.741	60.04335
589.17	59.77666
589.598	59.57648
590.027	59.12143
590.455	59.1487
590.884	58.70114
591.312	59.03025
591.74	58.25567
592.168	58.26183
592.597	57.85723
593.025	57.63409
593.453	57.01938
593.881	57.01242
594.309	56.65404
594.737	56.7085
595.165	56.19766
595.592	55.74412
596.02	55.62274
596.448	55.47633
596.875	55.54966
597.303	55.19638
597.73	54.96442
598.158	55.07771
598.585	54.83309
599.013	54.39584
599.44	54.52055
599.867	54.33746
600.294	54.23405
600.722	53.93502
601.149	53.65705
601.576	53.47394
602.003	53.19127
602.43	53.05932
602.856	53.19243
603.283	52.71637
603.71	52.28165
604.137	52.32012
604.563	52.30584
604.99	52.00124
605.416	51.52431
605.843	51.38898
606.269	51.38427
606.696	51.11224
607.122	51.14228
607.548	51.12266
607.975	50.71562
608.401	50.59489
608.827	50.68792
609.253	50.19753
609.679	50.42318
610.105	50.46767
610.531	50.27014
610.956	50.07441
611.382	49.72435
611.808	49.83313
612.234	49.80953
612.659	49.52878
613.085	49.40163
613.51	49.22505
613.936	49.1691
614.361	49.38989
614.786	49.15066
615.212	48.84856
615.637	48.82345
616.062	48.61496
616.487	48.94659
616.912	48.82093
617.337	48.50958
617.762	48.94363
618.187	48.23105
618.612	48.18682
619.037	48.31275
619.461	48.20025
619.886	47.65463
620.311	47.98692
620.735	48.34481
621.16	48.22081
621.584	47.64434
622.008	47.90052
622.433	47.95789
622.857	47.67451
623.281	47.61793
623.705	47.58674
624.13	47.36079
624.554	47.44898
624.978	47.80918
625.402	47.61227
625.826	47.35881
626.249	47.26043
626.673	47.78565
627.097	47.3223
627.521	47.23932
627.944	47.51174
628.368	47.54625
628.791	47.55596
629.215	47.4239
629.638	47.80615
630.061	47.73916
630.485	47.97311
630.908	47.97806
631.331	47.84278
631.754	47.78082
632.177	47.52759
632.6	47.82759
633.023	47.82931
633.446	47.97505
633.869	47.64192
634.292	47.93332
634.715	47.93962
635.137	48.35646
635.56	48.50812
635.982	48.73714
636.405	48.37075
636.827	48.74518
637.25	48.74971
637.672	48.37371
638.094	49.43479
638.517	49.28198
638.939	49.41627
639.361	49.17303
639.783	49.76488
640.205	49.59354
640.627	49.58679
641.049	49.9806
641.471	50.09438
641.893	50.35854
642.314	49.88057
642.736	50.75622
643.158	50.78565
643.579	50.9648
644.001	50.73871
644.422	50.77258
644.844	51.09965
645.265	51.50182
645.686	51.18486
646.107	51.58365
646.529	51.64816
646.95	51.79453
647.371	52.23015
647.792	52.20843
648.213	52.29641
648.634	52.39127
649.055	52.34938
649.475	52.7753
649.896	53.14244
650.317	53.0699
650.737	53.49933
651.158	53.96782
651.578	54.23559
651.999	54.67435
652.419	54.38959
652.84	54.26401
653.26	54.80753
653.68	55.14006
654.1	55.1021
654.521	55.1576
654.941	55.3675
655.361	56.05219
655.781	55.89709
656.2	56.11407
656.62	56.56945
657.04	56.50457
657.46	56.78993
657.879	57.42726
658.299	57.07027
658.719	57.41327
659.138	58.11089
659.558	57.61822
659.977	58.19879
660.396	58.21498
660.816	58.0713
661.235	58.37132
661.654	58.35021
662.073	59.15657
662.492	59.13018
662.911	59.58341
663.33	60.22573
663.749	59.83219
664.168	60.2612
664.587	59.94099
665.006	60.11314
665.424	61.0198
665.843	60.2915
666.261	60.66336
666.68	61.12607
667.098	61.33519
667.517	61.27942
667.935	61.66131
668.353	62.53273
668.772	61.55938
669.19	62.02589
669.608	61.98611
670.026	62.27574
670.444	62.60994
670.862	62.36299
671.28	62.51076
671.698	62.60335
672.115	62.62942
672.533	62.78956
672.951	62.25823
673.368	62.8333
673.786	62.6277
674.203	62.89402
674.621	63.36094
675.038	62.80178
675.456	63.64123
675.873	62.80485
676.29	62.86573
676.707	63.49101
677.124	63.02774
677.541	63.18098
677.958	62.9723
678.375	63.09836
678.792	62.91957
679.209	62.36384
679.626	63.35363
680.043	62.94993
680.459	63.51336
680.876	63.08338
681.292	63.29634
681.709	63.81204
682.125	63.23107
682.542	63.28301
682.958	62.86834
683.374	62.9191
683.79	62.68635
684.207	63.15185
684.623	63.05468
685.039	62.89774
685.455	62.76043
685.871	62.23424
686.286	62.40092
686.702	61.66756
687.118	62.25961
687.534	62.00673
687.949	62.00784
688.365	61.67411
688.781	61.32363
689.196	61.78022
689.611	61.07007
690.027	61.31762
690.442	60.57429
690.857	60.84878
691.273	60.41464
691.688	60.19612
692.103	60.56533
692.518	59.46584
692.933	60.13086
693.348	59.66064
693.763	59.70716
694.177	59.87815
694.592	59.27331
695.007	58.97898
695.421	58.63187
695.836	58.76455
696.25	57.84804
696.665	58.06663
697.079	57.27964
697.494	57.5499
697.908	57.15494
698.322	57.54755
698.736	56.55057
699.151	56.77626
699.565	56.40699
699.979	56.17028
700.393	56.39319
700.806	55.52049
701.22	55.84855
701.634	54.9313
702.048	55.02849
702.461	53.81917
702.875	54.87909
703.289	53.80156
703.702	54.2267
704.116	53.33816
704.529	53.80204
704.942	53.2663
705.356	52.78043
705.769	52.96616
706.182	52.11918
706.595	51.61911
707.008	51.16324
707.421	51.22216
707.834	50.58901
708.247	50.95986
708.66	49.97909
709.072	50.39568
709.485	50.20579
709.898	50.32636
710.31	49.24933
710.723	49.69566
711.135	48.71373
711.548	48.97865
711.96	48.71271
712.373	48.5906
712.785	47.75452
713.197	47.90227
713.609	47.15649
714.021	47.33344
714.433	46.38647
714.845	46.47389
715.257	46.06007
715.669	46.06424
716.081	45.93739
716.493	45.00245
716.904	44.9935
717.316	44.04459
717.727	44.22527
718.139	43.47607
718.55	43.69997
718.962	43.09314
719.373	43.59314
719.784	42.45559
720.196	42.84949
720.607	42.18683
721.018	42.40675
721.429	41.49907
721.84	41.31832
722.251	40.74712
722.662	41.5536
723.073	40.12642
723.483	41.01236
723.894	39.50306
724.305	39.89558
724.715	39.05292
725.126	39.02216
725.536	38.6871
725.947	38.81446
726.357	38.43498
726.768	38.56835
727.178	37.54806
727.588	37.96081
727.998	37.46037
728.408	37.38824
728.818	36.63005
729.228	37.00428
729.638	36.32307
730.048	36.19906
730.458	35.55934
730.868	35.70193
731.277	35.19294
731.687	35.51235
732.097	35.06676
732.506	35.36338
732.916	34.94092
733.325	34.64321
733.734	34.50212
734.144	34.32089
734.553	34.43554
734.962	33.89095
735.371	33.85806
735.78	33.35188
736.189	33.26781
736.598	33.057
737.007	33.15891
737.416	32.27003
737.825	32.40354
738.233	31.59386
738.642	32.23063
739.051	31.71935
739.459	32.4554
739.868	31.38742
740.276	31.69398
740.684	31.06204
741.093	31.72718
741.501	30.84667
741.909	30.81131
742.317	30.92702
742.725	30.77607
743.133	30.61414
743.541	30.13275
743.949	30.40534
744.357	30.21242
744.765	30.10812
745.173	29.77462
745.58	30.2124
745.988	29.33301
746.396	29.91687
746.803	28.90981
747.211	29.76645
747.618	29.12877
748.025	29.30546
748.433	28.78561
748.84	28.83327
749.247	28.62995
749.654	28.24206
750.061	28.48665
750.468	27.99784
750.875	28.30222
751.282	27.80505
751.689	28.18634
752.096	27.21807
752.502	28.13663
752.909	27.32032
753.316	28.27511
753.722	27.77632
754.129	27.40933
754.535	27.75834
754.941	27.46618
755.348	27.51361
755.754	27.03255
756.16	28.18134
756.566	26.9632
756.972	27.75948
757.378	27.09728
757.784	27.34692
758.19	27.0274
758.596	26.76221
759.002	27.16602
759.408	26.68277
759.813	27.23824
760.219	26.75585
760.624	27.30632
761.03	26.5082
761.435	26.48199
761.841	25.99192
762.246	26.38967
762.651	26.23169
763.057	26.08791
763.462	26.8647
763.867	26.40078
764.272	27.14704
764.677	26.60808
765.082	27.07826
765.487	26.59307
765.892	26.59202
766.296	26.61735
766.701	26.17942
767.106	26.30311
767.51	25.95918
767.915	26.40257
768.319	25.74258
768.724	26.04376
769.128	25.70546
769.532	25.453
769.936	25.85327
770.341	25.54848
770.745	25.8322
771.149	25.48622
771.553	25.78713
771.957	25.42357
772.361	25.44227
772.764	25.74895
773.168	24.97474
773.572	25.79114
773.976	25.11688
774.379	25.96447
774.783	25.03039
775.186	25.04079
775.59	24.98925
775.993	24.58057
776.396	25.25463
776.8	24.73993
777.203	25.77595
777.606	25.12768
778.009	25.35927
778.412	25.38615
778.815	25.23166
779.218	25.40828
779.621	25.39022
780.023	26.02974
780.426	25.10932
780.829	25.68434
781.231	25.61589
781.634	25.05221
782.036	25.60691
782.439	25.40488
782.841	25.51577
783.244	25.31948
783.646	25.14946
784.048	25.74841
784.45	24.97041
784.852	25.56086
785.254	24.96783
785.656	25.50321
786.058	25.809
786.46	25.1055
786.862	25.4112
787.264	24.69854
787.665	25.43152
788.067	25.08967
788.468	25.0959
788.87	25.4141
789.271	24.79687
789.673	25.46469
790.074	25.06703
790.475	25.61035
790.877	25.6772
791.278	25.46869
791.679	25.94252
792.08	25.19989
792.481	25.72808
792.882	25.54245
793.283	25.07586
793.683	25.67107
794.084	24.88268
794.485	25.22454
794.886	25.15895
795.286	25.21999
795.687	25.80672
796.087	25.13916
796.487	25.65709
796.888	25.28094
797.288	25.30069
797.688	25.52062
798.088	25.43132
798.489	25.81995
798.889	25.17789
799.289	25.15379
799.689	25.34769
800.088	25.01569
800.488	25.60703
800.888	25.50209
801.288	25.23406
801.687	25.56993
802.087	25.26348
802.486	25.75254
802.886	25.75897
803.285	25.10732
803.685	26.20191
804.084	25.56314
804.483	25.75114
804.882	25.5163
805.281	25.30496
805.68	26.1364
806.079	25.47381
806.478	26.41957
806.877	25.88553
807.276	25.57131
807.675	25.89442
808.074	25.7567
808.472	25.47981
808.871	25.92835
809.269	25.29168
809.668	26.1736
810.066	26.19139
810.465	26.14372
810.863	26.0967
811.261	25.81055
811.659	25.83999
812.057	26.01822
812.455	25.99098
812.853	25.87995
813.251	25.37995
813.649	25.75707
814.047	26.38688
814.445	25.58008
814.843	26.43295
815.24	25.7273
815.638	26.00478
816.035	26.06973
816.433	25.64961
816.83	26.10838
817.228	26.48701
817.625	25.93031
818.022	26.62226
818.419	25.92232
818.816	26.20487
819.213	26.59794
819.61	26.07936
820.007	26.40473
820.404	26.5497
820.801	26.765
821.198	27.48812
821.595	26.59423
821.991	27.00423
822.388	27.7464
822.784	27.25878
823.181	28.05604
823.577	27.90403
823.974	27.80037
824.37	27.91102
824.766	27.4999
825.162	27.49271
825.558	27.61506
825.954	26.93528
826.35	27.66488
826.746	27.86732
827.142	27.32007
827.538	28.16379
827.934	27.86994
828.33	27.65452
828.725	27.94134
829.121	27.30087
829.516	27.58419
829.912	27.40536
830.307	26.95725
830.703	27.28449
831.098	26.81351
831.493	27.00206
831.888	27.40837
832.283	26.50855
832.678	27.05415
833.073	27.31171
833.468	27.26414
833.863	27.65381
834.258	27.823
834.653	27.33746
835.048	28.06945
835.442	27.51014
835.837	27.58237
836.231	27.75184
836.626	27.69644
837.02	27.54289
837.415	27.76198
837.809	27.27892
838.203	27.44748
838.597	27.2743
838.991	26.82787
839.385	27.26367
839.779	27.13753
840.173	27.19047
840.567	27.91161
840.961	27.52889
841.355	27.90293
841.748	28.2572
842.142	27.66174
842.536	27.84384
842.929	27.93058
843.323	27.60774
843.716	27.48911
844.109	27.5648
844.503	27.34489
844.896	27.90992
845.289	27.57845
845.682	27.31743
846.075	28.42661
846.468	27.95864
846.861	27.53079
847.254	27.6259
847.647	27.9946
848.04	27.68716
848.432	28.07512
848.825	27.31917
849.217	27.27863
849.61	28.0872
850.002	28.16428
850.395	27.70155
850.787	27.68774
851.179	27.22838
851.572	26.88851
851.964	27.55711
852.356	27.34742
852.748	28.36376
853.14	27.50023
853.532	27.40239
853.924	28.49169
854.315	27.37396
854.707	27.27563
855.099	28.06691
855.491	26.9707
855.882	27.26215
856.274	28.27077
856.665	27.31051
857.056	27.08996
857.448	27.08575
857.839	27.78634
858.23	27.3711
858.621	27.52578
859.012	27.1618
859.403	27.83555
859.794	28.4382
860.185	28.101
860.576	27.00513
860.967	26.99369
861.358	28.0836
861.748	26.98473
862.139	27.50803
862.529	27.97063
862.92	27.18917
863.31	28.19754
863.701	27.39202
864.091	26.75153
864.481	27.60236
864.872	27.72234
865.262	27.02372
865.652	28.04388
866.042	27.1773
866.432	27.87367
866.822	27.97043
867.211	27.63807
867.601	27.35957
867.991	27.6616
868.381	27.65672
868.77	27.17508
869.16	28.12016
869.549	27.18846
869.939	27.33809
870.328	27.66916
870.717	27.97583
871.106	27.90045
871.496	28.06014
871.885	27.81113
872.274	27.08174
872.663	28.21863
873.052	27.97754
873.441	26.76155
873.829	27.78861
874.218	27.36849
874.607	26.65236
874.996	27.44028
875.384	27.53683
875.773	26.71244
876.161	27.01419
876.549	27.70098
876.938	26.88232
877.326	27.20574
877.714	27.36687
878.102	26.40249
878.491	27.0476
878.879	27.2061
879.267	26.91406
879.655	27.16863
880.042	27.98856
880.43	27.26544
880.818	27.75691
881.206	28.41088
881.593	27.8947
881.981	27.60809
882.368	28.46264
882.756	28.26529
883.143	27.94736
883.53	27.71906
883.918	28.01977
884.305	27.35077
884.692	27.92326
885.079	27.41226
885.466	27.07578
885.853	27.59895
886.24	27.33404
886.627	27.18713
887.014	27.89556
887.4	27.53174
887.787	26.94824
888.174	26.86383
888.56	27.30785
888.947	27.03669
889.333	27.09635
889.719	26.93154
890.106	27.01796
890.492	26.29912
890.878	26.92195
891.264	26.97413
891.65	26.40091
892.036	26.94604
892.422	27.26758
892.808	26.14976
893.194	26.56721
893.58	26.81494
893.965	26.58461
894.351	26.36658
894.736	26.43946
895.122	26.72591
895.507	26.94432
895.893	27.19837
896.278	27.23895
896.663	26.41586
897.049	27.1882
897.434	27.07133
897.819	26.906
898.204	27.06727
898.589	27.28712
898.974	26.8103
899.359	26.87632
899.743	27.32254
900.128	27.53841
900.513	26.7056
900.897	27.49925
901.282	26.85728
901.667	26.14055
902.051	26.57226
902.435	27.12584
902.82	26.12675
903.204	26.60864
903.588	26.93422
903.972	27.30629
904.356	26.94055
904.74	27.00744
905.124	27.14358
905.508	26.53601
905.892	27.11425
906.276	26.82587
906.659	26.82631
907.043	26.28914
907.427	27.51135
907.81	26.70659
908.194	26.74627
908.577	27.58037
908.96	26.70614
909.344	25.87267
909.727	25.77954
910.11	26.49616
910.493	26.91917
910.876	26.70077
911.259	26.6052
911.642	26.45108
912.025	25.37221
912.408	26.07905
912.79	25.63134
913.173	25.42035
913.556	25.62845
913.938	26.2911
914.321	25.48256
914.703	25.5647
915.086	26.50597
915.468	27.01215
915.85	26.23443
916.232	26.54227
916.614	27.03497
916.996	26.35997
917.378	26.30433
917.76	26.38715
918.142	27.15721
918.524	26.08849
918.906	26.80216
919.288	27.47366
919.669	26.58608
920.051	26.49175
920.432	26.30495
920.814	26.04754
921.195	25.59482
921.577	26.28868
921.958	26.46852
922.339	26.13331
922.72	25.28723
923.101	25.75368
923.482	25.93101
923.863	24.98307
924.244	26.58734
924.625	25.5836
925.006	26.14624
925.387	25.0298
925.767	26.02845
926.148	25.87752
926.528	25.27697
926.909	25.03107
927.289	25.32155
927.67	24.85026
928.05	25.62546
928.43	25.54246
928.81	25.24898
929.191	24.66155
929.571	24.01129
929.951	25.43166
930.331	25.68758
930.71	25.01573
931.09	25.06758
931.47	25.5724
931.85	25.77813
932.229	26.03096
932.609	24.88563
932.988	24.82598
933.368	25.47368
933.747	25.06513
934.127	25.84192
934.506	25.12678
934.885	25.38807
935.264	25.80193
935.643	25.93349
936.022	24.66818
936.401	24.72151
936.78	25.44099
937.159	24.6322
937.538	24.48537
937.916	26.15219
938.295	24.96953
938.674	23.41446
939.052	24.26463
939.431	25.12084
939.809	24.75966
940.187	24.24518
940.566	23.30598
940.944	24.08812
941.322	24.69411
941.7	23.38096
942.078	23.56637
942.456	24.75213
942.834	23.92277
943.212	23.21044
943.59	24.34473
943.968	24.00335
944.345	23.16208
944.723	23.65913
945.1	23.30984
945.478	23.54055
945.855	23.77948
946.233	22.67233
946.61	24.0923
946.987	23.41359
947.365	22.67548
947.742	23.48842
948.119	23.96904
948.496	24.21369
948.873	21.44226
949.25	23.06393
949.626	22.83791
950.003	22.97191
950.38	22.44255
950.756	24.38074
951.133	21.78708
951.51	22.58745
951.886	22.59409
952.262	23.09229
952.639	22.29992
953.015	23.99868
953.391	23.00322
953.767	21.27804
954.143	22.07486
954.519	22.15674
954.895	22.64599
955.271	22.74185
955.647	22.6529
956.023	23.1938
956.399	23.01497
956.774	22.30705
957.15	24.46743
957.525	21.89081
957.901	22.89643
958.276	22.19828
958.652	20.56013
959.027	20.9452
959.402	23.4654
959.777	21.70397
960.152	20.17564
960.527	21.62252
960.902	20.85188
961.277	22.33284
961.652	22.46647
962.027	20.21258
962.402	22.03204
962.776	22.8539
963.151	20.7744
963.525	24.21161
963.9	21.43685
964.274	21.13004
964.649	21.22722
965.023	21.28049
965.397	19.73271
965.771	21.65341
966.146	22.02648
966.52	20.71392
966.894	23.89172
967.268	19.94474
967.641	21.34519
968.015	20.4424
968.389	23.2998
968.763	22.07104
969.136	21.73261
969.51	23.3902
969.883	20.82343
970.257	21.59221
970.63	20.86407
971.003	21.1781
971.377	24.68837
971.75	21.23196
972.123	21.19357
972.496	22.40332
972.869	22.06451
973.242	20.25004
973.615	20.86645
973.988	21.78371
974.36	21.76771
974.733	21.64162
975.106	20.36272
975.478	22.76481
975.851	21.44831
976.223	20.07651
976.596	20.15826
976.968	21.19935
977.34	22.1724
977.712	20.43648
978.085	20.712
978.457	21.53533
978.829	22.70424
979.201	22.54579
979.573	21.0903
979.944	21.94081
980.316	21.93499
980.688	22.50974
981.059	20.90864
981.431	20.69385
981.803	22.07064
982.174	20.01139
982.545	21.807
982.917	21.40556
983.288	19.78234
983.659	20.94678
984.03	19.77206
984.401	21.95032
984.772	22.13165
985.143	21.70565
985.514	18.39598
985.885	23.1192
986.256	20.65701
986.627	20.13086
986.997	20.29737
987.368	19.3516
987.738	19.25565
988.109	21.16051
988.479	21.17233
988.85	20.26987
989.22	21.36969
989.59	23.17511
989.96	18.94778
990.33	20.15163
990.7	20.8327
991.07	20.52757
991.44	20.8853
991.81	20.71698
992.18	20.21668
992.549	21.70559
992.919	20.55475
993.289	20.90706
993.658	19.64717
994.028	20.47516
994.397	20.49119
994.766	19.73224
995.136	22.29939
995.505	21.04053
995.874	23.24136
996.243	18.7883
996.612	20.80778
996.981	19.72614
997.35	19.80941
997.719	20.9459
998.088	18.3263
998.456	20.17298
998.825	20.96091
999.194	20.72145
999.562	17.61412
999.931	20.75222
1000.299	14.88578
1000.667	19.26078
1001.036	19.03899
1001.404	20.5998
1001.772	17.26829
1002.14	18.84784
1002.508	17.24913
1002.876	18.38186
1003.244	20.27894
1003.612	15.52162
1003.98	19.013
1004.347	11.73549
1004.715	15.702
1005.083	19.80318
1005.45	15.22062
1005.818	17.30615
1006.185	14.78133
1006.552	20.12506
1006.92	17.71833
1007.287	16.57066
1007.654	16.2463
1008.021	16.41573
1008.388	18.73552
1008.755	16.10761
1009.122	15.82025
1009.489	15.13004
1009.856	18.79936
1010.222	15.15231
1010.589	16.17983
1010.956	14.98679
1011.322	19.94003
1011.689	18.89046
1012.055	17.55807
1012.421	16.05563
1012.788	17.65313
1013.154	19.78152
1013.52	16.36404
1013.886	14.66864
1014.252	14.61999
1014.618	14.69754
1014.984	11.49912
1015.35	13.99613
1015.716	16.15782
1016.081	6.88063
1016.447	16.48594
1016.813	14.18953
1017.178	13.05922
1017.544	15.90688
1017.909	11.77352
1018.274	15.48722
1018.64	14.37273
1019.005	15.61952
1019.37	13.24956
1019.735	16.15031
1020.1	0.54123
1020.465	14.30607
1020.83	12.30033
1021.195	5.48954
1021.56	10.129
1021.924	13.32884
1022.289	12.72202
1022.654	9.4567
1023.018	13.06797
1023.383	8.91876
1023.747	12.93081
1024.111	4.85984
1024.476	15.72671
1024.84	14.17408
1025.204	12.87354
1025.568	5.18961
1025.932	9.58807
1026.296	10.2707
1026.66	6.33378
1027.024	12.64243
1027.387	-1.57321
1027.751	16.94382
1028.115	12.99599
1028.478	-4.90304
1028.842	5.34457
1029.205	9.12409
1029.569	14.96705
1029.932	7.00387
1030.295	16.65506
1030.659	0.23565
1031.022	-2.32377
1031.385	7.76381
1031.748	0.95616
1032.111	11.24906
1032.474	4.08906
1032.836	3.21428
1033.199	6.05654
1033.562	-12.08537
1033.924	7.08168
1034.287	11.56818
1034.65	-1.78985
1035.012	7.31215
1035.374	6.85275
1035.737	-13.063
1036.099	7.16091
1036.461	-3.27666
1036.823	0.31036
1037.185	8.64014
1037.547	3.13289
1037.909	-14.32113
1038.271	-0.34582
1038.633	-22.01285
1038.995	2.98832
1039.356	-1.37851
1039.718	-11.80108
1040.08	1.06703
1040.441	0.38003
1040.803	-5.65726
1041.164	-10.42535
1041.525	-7.80223
1041.886	5.36137
1042.248	3.12347
1042.609	8.87673
1042.97	-1.46999
1043.331	3.47892
1043.692	-11.14584
1044.053	-6.72782
1044.413	-6.84616
1044.774	7.50641
1045.135	13.07932
1045.495	-1.80915
1045.856	-2.22142
1046.216	-28.46961
1046.577	15.04907
1046.937	-8.80627
1047.298	0
