Data from 1014water-6_Reflection__25__23-52-11-327.txt Node

Date: Tue Oct 14 23:52:11 AST 2025
User: lin
Spectrometer: SR600411
Trigger mode: 0
Integration Time (sec): 5.910000E-2
Scans to average: 5
Nonlinearity correction enabled: true
Boxcar width: 0
Storing dark spectrum: false
XAxis mode: Wavelengths
Number of Pixels in Spectrum: 2048
>>>>>Begin Spectral Data<<<<<
187.982	40.60044
188.456	33.32148
188.93	50.96781
189.403	41.38623
189.877	31.67685
190.351	38.69515
190.825	23.54511
191.298	18.41429
191.772	26.39806
192.246	26.32584
192.719	9.99698
193.193	38.30776
193.666	23.52156
194.139	21.45147
194.613	34.92857
195.086	46.17487
195.559	39.20129
196.033	43.36887
196.506	39.4002
196.979	43.80294
197.452	49.09005
197.925	50.25519
198.398	44.51012
198.871	41.32366
199.344	38.89846
199.816	42.30923
200.289	34.09707
200.762	39.1603
201.235	27.66972
201.707	5.38754
202.18	19.9951
202.652	-1.3982
203.125	18.86312
203.597	22.13295
204.07	8.69349
204.542	19.22758
205.014	23.52458
205.486	6.33636
205.959	5.73081
206.431	-9.4318
206.903	7.14139
207.375	-11.19693
207.847	33.52192
208.319	9.77212
208.791	-51.17763
209.263	21.7011
209.734	7.69048
210.206	-47.93498
210.678	-2.17331
211.15	-32.99133
211.621	13.63432
212.093	-4.57891
212.564	-29.02768
213.036	32.6488
213.507	1.55
213.979	-22.21643
214.45	14.60455
214.921	26.44163
215.392	-7.62521
215.864	-22.82099
216.335	-12.35711
216.806	-43.93115
217.277	-37.62489
217.748	-5.61693
218.219	-17.47155
218.69	-132.62317
219.161	-58.42748
219.631	-28.22922
220.102	6.17098
220.573	-36.57727
221.043	-32.97058
221.514	-22.68253
221.985	-44.91866
222.455	-0.81281
222.926	3.84558
223.396	-29.20685
223.866	-9.75436
224.337	-18.01335
224.807	-11.49205
225.277	-31.63908
225.747	8.78977
226.217	-6.03302
226.687	-20.23405
227.157	-12.86839
227.627	-49.54838
228.097	-34.17006
228.567	-39.24076
229.037	-28.11817
229.507	2.96972
229.977	-27.16763
230.446	-39.99447
230.916	-24.99284
231.386	-31.75768
231.855	-30.18457
232.325	-33.89301
232.794	-118.25088
233.263	-9.08897
233.733	2.30711
234.202	-19.22723
234.671	-64.3496
235.14	-54.91764
235.61	-47.75185
236.079	-3.40848
236.548	-56.0492
237.017	-3.29609
237.486	-17.73938
237.955	-22.41065
238.424	6.34773
238.892	-40.25114
239.361	-60.54973
239.83	-32.55081
240.299	-6.55569
240.767	-183.29023
241.236	3.4477
241.704	-86.81776
242.173	21.05014
242.641	-1.51495
243.109	-12.6017
243.578	-23.07328
244.046	-32.80699
244.514	-15.06599
244.982	-52.29745
245.451	-151.88372
245.919	4.50356
246.387	-57.13291
246.855	-57.63179
247.323	-46.50005
247.791	-11.00654
248.258	-51.59851
248.726	-34.9944
249.194	-71.41334
249.662	-23.07327
250.129	4.65041
250.597	-33.77717
251.064	-46.50004
251.532	-44.43532
251.999	-91.81967
252.467	-26.75581
252.934	-43.54073
253.401	-69.84595
253.869	-29.99383
254.336	-5.3753
254.803	-61.39237
255.27	3.19091
255.737	-20.5849
256.204	-74.6296
256.671	-61.89229
257.138	-38.62705
257.605	-11.99867
258.072	-64.84924
258.539	-37.67408
259.005	-24.99506
259.472	-11.59244
259.939	-33.81744
260.405	-124.97332
260.872	-42.84783
261.338	-137.22207
261.805	-19.63766
262.271	-76.58318
262.737	19.99668
263.203	-0.87699
263.67	-77.98628
264.136	-33.93516
264.602	-2.35254
265.068	-172.46285
265.534	-58.32457
266	-139.50647
266.466	-33.32754
266.932	-88.08148
267.398	-52.29746
267.864	-53.41284
268.329	28.56889
268.795	-317.16558
269.261	-7.24532
269.726	-67.67772
270.192	-24.99505
270.657	-25.39286
271.123	-51.44045
271.588	-46.93209
272.053	-38.26312
272.519	20.28765
272.984	-94.80641
273.449	-71.42179
273.914	-52.15949
274.379	-32.17658
274.844	-16.43559
275.309	-71.41163
275.774	-55.31117
276.239	14.89009
276.704	-11.6997
277.169	-67.3708
277.634	8.43247
278.098	-47.17879
278.563	-74.49669
279.028	-22.34834
279.492	-39.99502
279.957	-29.50359
280.421	-76.73266
280.886	-21.99469
281.35	-11.7625
281.814	-21.84248
282.279	-41.45392
282.743	12.86905
283.207	-216.16627
283.671	-76.10164
284.135	-66.65084
284.599	-4.99938
285.063	-52.44938
285.527	-52.93029
285.991	-119.54135
286.455	-21.42569
286.919	-223.0399
287.382	-36.75795
287.846	-80.74672
288.31	-8.50892
288.773	-91.16475
289.237	-18.74718
289.7	-38.79884
290.164	-58.8906
290.627	-56.88632
291.09	-16.24701
291.554	-27.11463
292.017	-215.34976
292.48	-46.04251
292.943	-86.65227
293.406	-71.14133
293.869	-6.79464
294.332	-89.77941
294.795	-25.60455
295.258	-28.3534
295.721	-147.88189
296.184	-37.24974
296.646	-39.33765
297.109	-23.70572
297.572	-499.91697
298.034	-34.65974
298.497	-74.45603
298.959	-1099.92174
299.422	-93.46181
299.884	-137.18164
300.346	-79.98578
300.809	-118.8999
301.271	-17.94545
301.733	-30.13132
302.195	-39.27966
302.657	17.70557
303.119	-80.49735
303.581	-159.23725
304.043	1.38869
304.505	24.23883
304.967	-79.4652
305.429	14.56057
305.891	-72.04215
306.352	-12.90144
306.814	44.44049
307.275	-31.87832
307.737	10.5249
308.198	24.6725
308.66	-15.14924
309.121	-25.67096
309.583	7.69176
310.044	-189.62366
310.505	-9.56283
310.966	-47.44946
311.428	-12.27915
311.889	-46.14517
312.35	-64.36831
312.811	-245.41768
313.272	-58.96715
313.733	-11.57652
314.193	1029.62798
314.654	-19.99692
315.115	-76.91259
315.576	-40.81076
316.036	-66.13974
316.497	-254.50624
316.957	-1014.12934
317.418	-149.98368
317.878	-32.64887
318.339	-22.8552
318.799	47.55694
319.259	-32.13581
319.72	-21.24593
320.18	-28.80923
320.64	-123.31701
321.1	-42.58611
321.56	-60.33373
322.02	-128.54294
322.48	-11.23376
322.94	-146.13535
323.4	-23.99706
323.86	-33.32595
324.319	-499.93482
324.779	-34.08296
325.239	-36.22515
325.698	1.17628
326.158	-55.31117
326.617	-57.88446
327.077	-83.32065
327.536	-168.1426
327.996	2.53126
328.455	-74.97926
328.914	-30.18456
329.373	-69.68153
329.832	-15.11332
330.292	-26.87545
330.751	-91.15308
331.21	-157.46797
331.668	-28.11817
332.127	16.36066
332.586	-94.52546
333.045	9.781
333.504	-189.31085
333.962	-65.65725
334.421	-373.2809
334.88	-119.12471
335.338	-106.22921
335.797	-19.17478
336.255	-74.58694
336.714	-18.55248
337.172	-1.709
337.63	-118.3423
338.088	13.88634
338.547	-73.00015
339.005	-52.99874
339.463	-18.51384
339.921	-2.98467
340.379	-83.65858
340.837	-48.70678
341.295	-40.3445
341.753	-114.51877
342.21	-74.53131
342.668	-52.62251
343.126	-5.71345
343.584	-89.12899
344.041	-7.86368
344.499	-41.01674
344.956	39.62013
345.414	-4.50347
345.871	-135.52718
346.328	-59.07866
346.786	-42.85037
347.243	-39.99447
347.7	-87.28125
348.157	-98.12741
348.614	-41.42046
349.071	-24.3199
349.528	-2999.44811
349.985	11.47296
350.442	-92.2849
350.899	-17.38852
351.356	-34.65975
351.812	-33.32517
352.269	18.17891
352.726	-19.99811
353.182	-46.14172
353.639	-34.51611
354.095	-2.597
354.552	-49.98993
355.008	-86.42191
355.465	-85.48564
355.921	-23.85849
356.377	-22.2174
356.833	-42.24509
357.289	-19.27334
357.745	-19.56096
358.201	-58.32021
358.657	-17.16778
359.113	-7.99829
359.569	9.47207
360.025	-5.44051
360.481	0.92573
360.937	0
361.392	20.13431
361.848	5.5987
362.303	19.69285
362.759	1.83448
363.214	35.83045
363.67	22.38925
364.125	21.71205
364.581	33.82868
365.036	34.27483
365.491	23.43357
365.946	28.92665
366.401	35.51258
366.856	45.6227
367.311	19.62177
367.766	43.66368
368.221	24.37686
368.676	39.69637
369.131	42.83657
369.586	48.67305
370.041	46.71486
370.495	46.38188
370.95	45.28136
371.404	49.09651
371.859	50.16482
372.313	46.43767
372.768	44.91168
373.222	51.22345
373.676	49.85266
374.131	48.61278
374.585	52.60241
375.039	53.79652
375.493	51.65368
375.947	52.65809
376.401	55.50082
376.855	53.04207
377.309	52.74294
377.763	51.64167
378.217	54.51548
378.67	51.93501
379.124	50.6496
379.578	53.73322
380.031	55.18268
380.485	54.00907
380.938	54.08873
381.392	53.10735
381.845	53.26818
382.299	55.6865
382.752	53.64602
383.205	53.60584
383.658	54.65422
384.111	54.63884
384.564	53.41264
385.018	54.60103
385.471	53.47141
385.923	52.71365
386.376	56.18976
386.829	56.85461
387.282	56.2462
387.735	56.25657
388.187	55.90215
388.64	57.13189
389.093	56.22786
389.545	57.19777
389.998	57.13047
390.45	55.79036
390.902	56.35869
391.355	57.16426
391.807	57.87998
392.259	57.14171
392.711	57.90522
393.163	57.50418
393.615	57.0912
394.068	57.14342
394.519	57.35384
394.971	56.24107
395.423	57.29984
395.875	57.606
396.327	56.99776
396.779	56.91023
397.23	56.26227
397.682	56.89035
398.133	56.37024
398.585	57.4432
399.036	56.46263
399.488	56.61113
399.939	56.41411
400.39	56.83943
400.842	56.54081
401.293	56.22077
401.744	56.49788
402.195	57.19482
402.646	56.86196
403.097	56.95833
403.548	56.14476
403.999	56.46724
404.45	56.05072
404.9	55.77437
405.351	56.02147
405.802	56.30244
406.253	55.42162
406.703	55.41876
407.154	55.83719
407.604	56.08299
408.055	55.51517
408.505	56.08542
408.955	55.15281
409.406	55.03663
409.856	54.99802
410.306	55.16069
410.756	54.45828
411.206	54.67421
411.656	53.96015
412.106	54.37849
412.556	53.81159
413.006	54.03301
413.456	53.24603
413.905	53.4418
414.355	52.72575
414.805	53.98467
415.254	53.59653
415.704	53.05919
416.153	52.74359
416.603	53.40454
417.052	52.71648
417.502	52.11321
417.951	52.45213
418.4	52.04902
418.849	52.46554
419.298	51.98883
419.748	52.31218
420.197	52.54269
420.646	52.10026
421.094	51.29321
421.543	51.28251
421.992	51.26907
422.441	51.22159
422.89	50.98519
423.338	50.90326
423.787	50.75118
424.236	50.3755
424.684	50.57733
425.133	50.65738
425.581	50.08515
426.029	49.87525
426.478	49.67844
426.926	49.74555
427.374	49.51748
427.822	49.43942
428.27	48.92589
428.718	49.95019
429.166	48.74883
429.614	49.06469
430.062	48.92335
430.51	48.90852
430.958	48.6418
431.406	49.15598
431.853	49.06721
432.301	48.58108
432.749	48.41618
433.196	48.29056
433.644	48.29837
434.091	47.94258
434.538	47.92942
434.986	47.96532
435.433	47.59974
435.88	47.42253
436.327	47.48638
436.775	47.29371
437.222	47.50903
437.669	47.16669
438.116	47.04653
438.563	46.79092
439.009	47.4806
439.456	47.55421
439.903	47.26597
440.35	47.16928
440.796	46.69369
441.243	47.18018
441.689	47.3655
442.136	46.90242
442.582	47.06148
443.029	47.34878
443.475	47.02963
443.921	46.83371
444.368	46.86275
444.814	47.07038
445.26	46.96361
445.706	47.51785
446.152	46.84578
446.598	46.98114
447.044	47.34707
447.49	46.92536
447.936	46.78145
448.381	46.92508
448.827	47.31399
449.273	47.18703
449.718	47.25618
450.164	46.95028
450.61	47.0511
451.055	46.84031
451.5	46.97347
451.946	47.39145
452.391	47.02811
452.836	47.4987
453.282	47.01536
453.727	47.70995
454.172	46.75129
454.617	46.81377
455.062	46.8601
455.507	47.14075
455.952	46.88572
456.396	47.20486
456.841	47.31323
457.286	47.28396
457.731	47.40686
458.175	47.41491
458.62	47.51854
459.064	47.17716
459.509	47.25034
459.953	47.30275
460.398	47.86085
460.842	47.66653
461.286	47.69125
461.73	47.68056
462.174	47.47543
462.619	47.99611
463.063	47.93062
463.507	47.69512
463.951	47.79441
464.394	48.22603
464.838	47.85836
465.282	48.19672
465.726	48.31891
466.17	48.14746
466.613	48.98311
467.057	48.79258
467.5	49.17798
467.944	49.23875
468.387	49.44806
468.831	49.67481
469.274	50.2343
469.717	50.3424
470.16	50.43032
470.603	50.50026
471.047	50.5535
471.49	50.71362
471.933	50.91578
472.376	51.25803
472.818	51.18444
473.261	51.38331
473.704	51.67755
474.147	51.88703
474.59	52.27418
475.032	52.29785
475.475	52.38467
475.917	52.5663
476.36	52.95997
476.802	53.31586
477.245	53.64469
477.687	53.84306
478.129	53.54572
478.571	54.35958
479.013	53.75257
479.456	53.83617
479.898	54.28304
480.34	54.61163
480.782	54.88959
481.224	55.18503
481.665	55.12728
482.107	55.52736
482.549	55.75744
482.991	56.10811
483.432	56.1943
483.874	56.86571
484.315	56.43271
484.757	56.45706
485.198	56.60519
485.64	56.85751
486.081	56.98334
486.522	57.37362
486.963	57.42831
487.405	57.61029
487.846	57.69929
488.287	57.94906
488.728	58.11148
489.169	58.23151
489.61	58.67387
490.05	58.52662
490.491	58.66024
490.932	58.4026
491.373	58.61673
491.813	58.63416
492.254	58.58239
492.694	58.78285
493.135	58.87091
493.575	58.99253
494.016	59.23592
494.456	59.38581
494.896	59.98401
495.336	59.99769
495.777	59.95476
496.217	60.11705
496.657	60.46557
497.097	60.66124
497.537	60.59749
497.977	60.72092
498.416	60.46841
498.856	61.24915
499.296	60.81184
499.736	61.29292
500.175	61.04918
500.615	61.29934
501.054	61.17467
501.494	61.86056
501.933	61.82237
502.373	61.86336
502.812	62.55359
503.251	62.97854
503.69	62.45202
504.129	63.26204
504.569	63.40298
505.008	62.95039
505.447	63.91132
505.886	63.99692
506.324	64.48376
506.763	64.50091
507.202	64.20526
507.641	64.56032
508.079	65.01017
508.518	65.37509
508.957	65.39
509.395	65.54443
509.834	66.04286
510.272	66.57933
510.71	66.52715
511.149	66.88733
511.587	66.39785
512.025	66.8805
512.463	67.07628
512.901	67.6543
513.339	67.91267
513.777	67.21522
514.215	68.65946
514.653	69.0136
515.091	69.52351
515.529	69.10733
515.966	69.94199
516.404	70.47681
516.842	70.28193
517.279	70.39968
517.717	70.93499
518.154	70.9858
518.592	70.93756
519.029	71.28835
519.466	72.38543
519.904	71.15607
520.341	72.46747
520.778	72.32655
521.215	72.28564
521.652	73.15079
522.089	73.14129
522.526	72.884
522.963	73.75895
523.399	74.15006
523.836	73.77221
524.273	74.77297
524.71	75.24069
525.146	75.31508
525.583	75.99665
526.019	76.088
526.456	76.38809
526.892	76.33267
527.328	76.32081
527.765	76.60015
528.201	77.11742
528.637	77.14669
529.073	78.09115
529.509	78.00902
529.945	78.11868
530.381	77.83021
530.817	79.01998
531.253	78.48596
531.689	79.31014
532.124	78.54513
532.56	79.38342
532.996	80.00222
533.431	79.88689
533.867	80.53999
534.302	80.04215
534.738	79.83247
535.173	80.73099
535.608	80.63122
536.044	81.19125
536.479	81.29631
536.914	81.71973
537.349	81.53427
537.784	81.67785
538.219	81.78538
538.654	81.27988
539.089	81.28499
539.524	81.78366
539.959	81.8902
540.393	81.66214
540.828	81.9273
541.263	82.06069
541.697	82.1185
542.132	82.28545
542.566	82.45999
543.001	82.89869
543.435	82.96497
543.869	82.90604
544.303	82.57255
544.738	82.29437
545.172	81.89621
545.606	82.37493
546.04	82.38875
546.474	82.01178
546.908	82.25651
547.342	82.24761
547.775	82.43757
548.209	81.8038
548.643	82.01818
549.077	81.89106
549.51	82.41609
549.944	81.26143
550.377	81.338
550.811	81.44199
551.244	81.21098
551.677	80.60334
552.111	81.29251
552.544	80.54416
552.977	80.64313
553.41	80.75037
553.843	80.2279
554.276	79.94474
554.709	80.47243
555.142	79.92997
555.575	80.17963
556.008	79.58096
556.44	79.10698
556.873	79.56255
557.306	79.435
557.738	78.49985
558.171	78.07573
558.603	78.26342
559.036	77.78726
559.468	77.78605
559.9	77.97015
560.333	76.78353
560.765	77.09305
561.197	77.59011
561.629	77.10614
562.061	76.32088
562.493	75.68482
562.925	76.16007
563.357	75.27998
563.789	75.63765
564.22	75.1332
564.652	74.95777
565.084	75.56729
565.515	74.52398
565.947	73.82268
566.378	73.70346
566.81	73.523
567.241	72.8497
567.672	72.51088
568.104	72.15517
568.535	71.99319
568.966	72.14721
569.397	72.05601
569.828	71.90794
570.259	71.96084
570.69	71.48729
571.121	70.5031
571.552	70.82999
571.983	70.09951
572.414	70.52763
572.844	70.20628
573.275	69.75368
573.705	69.79008
574.136	69.59246
574.566	69.49352
574.997	68.40939
575.427	68.65777
575.857	67.77918
576.288	68.113
576.718	68.23743
577.148	67.61377
577.578	67.47665
578.008	67.61325
578.438	67.21011
578.868	66.6743
579.298	66.87979
579.728	66.50218
580.157	65.83689
580.587	65.68133
581.017	65.73248
581.446	64.92237
581.876	64.67826
582.305	64.78231
582.735	63.99804
583.164	63.50781
583.593	63.56357
584.023	63.20426
584.452	63.27606
584.881	62.65508
585.31	62.6469
585.739	62.82157
586.168	62.64402
586.597	62.74602
587.026	63.00385
587.455	61.94617
587.884	61.7382
588.312	61.57567
588.741	61.51456
589.17	60.77051
589.598	60.42526
590.027	60.38845
590.455	60.50684
590.884	60.13977
591.312	59.92402
591.74	59.54674
592.168	59.3464
592.597	58.89888
593.025	58.80531
593.453	58.27613
593.881	58.21354
594.309	57.83517
594.737	57.79015
595.165	57.19837
595.592	57.22636
596.02	57.33086
596.448	56.72812
596.875	56.58285
597.303	56.57278
597.73	56.0871
598.158	56.30956
598.585	56.07187
599.013	55.58089
599.44	55.64364
599.867	55.44237
600.294	55.24704
600.722	55.27882
601.149	55.02196
601.576	55.02377
602.003	54.68633
602.43	54.65502
602.856	54.5826
603.283	54.03451
603.71	53.73544
604.137	53.69719
604.563	53.88363
604.99	53.13068
605.416	52.94255
605.843	52.43622
606.269	52.2726
606.696	51.83023
607.122	52.03761
607.548	52.40724
607.975	51.97353
608.401	52.00128
608.827	51.77185
609.253	51.4655
609.679	51.96307
610.105	52.32522
610.531	51.46464
610.956	50.86589
611.382	50.76163
611.808	50.98126
612.234	50.47223
612.659	50.64336
613.085	50.63069
613.51	50.7486
613.936	50.22187
614.361	50.17986
614.786	50.19876
615.212	50.22499
615.637	50.11773
616.062	49.94106
616.487	49.92855
616.912	49.71785
617.337	49.388
617.762	49.55781
618.187	49.17153
618.612	49.01402
619.037	48.8888
619.461	49.12702
619.886	48.6551
620.311	49.06098
620.735	48.52861
621.16	48.86044
621.584	48.19796
622.008	48.497
622.433	49.19594
622.857	48.49468
623.281	48.50315
623.705	48.31559
624.13	48.10773
624.554	48.23488
624.978	48.30274
625.402	47.84959
625.826	48.42721
626.249	48.50446
626.673	48.3379
627.097	48.31268
627.521	47.92189
627.944	48.3895
628.368	47.95934
628.791	48.67001
629.215	48.32129
629.638	48.8078
630.061	48.62543
630.485	48.68732
630.908	49.07121
631.331	48.66188
631.754	48.54741
632.177	48.75098
632.6	48.86362
633.023	48.05641
633.446	48.6486
633.869	48.55254
634.292	48.52382
634.715	48.6569
635.137	49.05886
635.56	49.18013
635.982	49.11375
636.405	49.22759
636.827	49.19128
637.25	49.63616
637.672	49.775
638.094	49.93819
638.517	50.14697
638.939	49.85431
639.361	49.50262
639.783	49.60788
640.205	50.28693
640.627	49.96274
641.049	50.5944
641.471	50.01509
641.893	50.36452
642.314	50.86221
642.736	51.06751
643.158	51.25785
643.579	50.85078
644.001	50.87121
644.422	51.09094
644.844	51.57393
645.265	51.66424
645.686	51.48067
646.107	51.69178
646.529	51.25031
646.95	51.69278
647.371	51.98637
647.792	51.8979
648.213	52.19178
648.634	52.68811
649.055	52.47726
649.475	52.54704
649.896	53.33644
650.317	52.89584
650.737	53.99374
651.158	53.95512
651.578	53.95177
651.999	55.04249
652.419	54.25802
652.84	54.06369
653.26	54.26388
653.68	54.68137
654.1	54.78916
654.521	54.99026
654.941	54.47405
655.361	55.56287
655.781	55.25614
656.2	55.42817
656.62	55.98992
657.04	56.40739
657.46	56.21563
657.879	56.84058
658.299	56.61143
658.719	57.20712
659.138	56.6714
659.558	57.20726
659.977	57.60576
660.396	57.07236
660.816	57.38716
661.235	57.50925
661.654	58.0212
662.073	58.43705
662.492	58.42306
662.911	58.96832
663.33	58.7885
663.749	58.89791
664.168	59.60758
664.587	59.07359
665.006	59.03034
665.424	59.94036
665.843	59.97911
666.261	59.79759
666.68	60.00888
667.098	60.39927
667.517	60.19632
667.935	60.77107
668.353	61.13412
668.772	60.60687
669.19	60.91443
669.608	61.25947
670.026	61.06964
670.444	61.64193
670.862	60.96085
671.28	61.37782
671.698	61.44198
672.115	61.53102
672.533	61.92318
672.951	61.68542
673.368	62.13282
673.786	61.80955
674.203	61.30511
674.621	61.88762
675.038	61.63143
675.456	62.57654
675.873	61.96785
676.29	61.75009
676.707	61.8256
677.124	61.14795
677.541	61.32194
677.958	61.23229
678.375	61.95383
678.792	61.39132
679.209	61.0385
679.626	61.66066
680.043	61.47323
680.459	62.02633
680.876	61.29783
681.292	61.80679
681.709	62.31008
682.125	61.94743
682.542	61.707
682.958	60.92869
683.374	61.5273
683.79	61.53812
684.207	61.52981
684.623	61.69212
685.039	61.33481
685.455	61.18217
685.871	60.74914
686.286	61.02399
686.702	60.57602
687.118	60.99117
687.534	60.77044
687.949	60.23127
688.365	60.34501
688.781	59.74969
689.196	60.33115
689.611	59.73122
690.027	59.99234
690.442	59.13102
690.857	58.65416
691.273	58.87635
691.688	58.93881
692.103	59.22992
692.518	58.44272
692.933	58.48561
693.348	58.35015
693.763	58.26259
694.177	58.31086
694.592	57.9754
695.007	57.67846
695.421	57.34923
695.836	56.97956
696.25	56.91254
696.665	56.76718
697.079	55.71407
697.494	56.37454
697.908	55.86119
698.322	55.86935
698.736	55.48681
699.151	55.0354
699.565	54.96554
699.979	54.91763
700.393	54.41226
700.806	53.87194
701.22	54.34584
701.634	53.64748
702.048	54.28976
702.461	53.37462
702.875	53.58016
703.289	52.9959
703.702	52.81093
704.116	52.7259
704.529	52.73888
704.942	52.02488
705.356	52.19246
705.769	51.67462
706.182	51.28654
706.595	51.21328
707.008	50.97591
707.421	50.77028
707.834	50.18451
708.247	50.61033
708.66	49.24828
709.072	49.40089
709.485	48.9715
709.898	49.30748
710.31	48.14245
710.723	48.70863
711.135	47.60939
711.548	47.85238
711.96	47.52801
712.373	47.55244
712.785	47.17607
713.197	47.27015
713.609	46.28176
714.021	46.56978
714.433	45.54542
714.845	45.73469
715.257	45.29264
715.669	44.9216
716.081	44.6172
716.493	44.23369
716.904	44.10842
717.316	43.37768
717.727	43.98923
718.139	43.07911
718.55	43.29259
718.962	42.7628
719.373	42.65904
719.784	42.25786
720.196	42.1821
720.607	42.10628
721.018	41.89058
721.429	40.91549
721.84	40.90084
722.251	40.06318
722.662	41.17757
723.073	39.8704
723.483	40.29956
723.894	39.23835
724.305	39.45041
724.715	38.50027
725.126	38.95482
725.536	38.0759
725.947	38.26397
726.357	37.49469
726.768	37.92463
727.178	37.1543
727.588	37.85058
727.998	36.6568
728.408	36.8576
728.818	35.9813
729.228	36.71997
729.638	36.12323
730.048	36.16689
730.458	35.58774
730.868	35.48682
731.277	35.48218
731.687	35.30176
732.097	35.15174
732.506	35.28163
732.916	35.13397
733.325	34.8154
733.734	34.45581
734.144	34.12459
734.553	34.25821
734.962	33.46017
735.371	33.74881
735.78	32.80894
736.189	33.40566
736.598	32.5831
737.007	33.14619
737.416	32.20299
737.825	32.32359
738.233	31.61545
738.642	32.45534
739.051	31.66751
739.459	32.51103
739.868	31.45694
740.276	31.95322
740.684	31.52894
741.093	31.74196
741.501	31.15011
741.909	31.13649
742.317	30.97953
742.725	31.25727
743.133	30.43875
743.541	30.15185
743.949	30.8761
744.357	30.38545
744.765	30.23301
745.173	29.84705
745.58	30.4066
745.988	29.2739
746.396	29.76125
746.803	29.26769
747.211	29.79219
747.618	29.04619
748.025	29.28391
748.433	28.81477
748.84	28.46475
749.247	28.28885
749.654	28.03998
750.061	28.55695
750.468	28.01151
750.875	28.25566
751.282	27.76014
751.689	28.22152
752.096	27.34978
752.502	28.10289
752.909	27.6867
753.316	28.03503
753.722	27.77835
754.129	27.21523
754.535	27.32369
754.941	27.47034
755.348	27.80746
755.754	27.06375
756.16	27.98266
756.566	27.03842
756.972	27.29565
757.378	26.73389
757.784	27.20466
758.19	26.88937
758.596	26.95973
759.002	27.20977
759.408	26.92518
759.813	27.17674
760.219	26.58585
760.624	27.1159
761.03	26.53245
761.435	26.64589
761.841	25.73868
762.246	26.36788
762.651	26.10496
763.057	26.00731
763.462	26.6741
763.867	26.41937
764.272	27.17238
764.677	26.7653
765.082	26.86133
765.487	26.50938
765.892	26.46458
766.296	26.63943
766.701	25.98073
767.106	26.4494
767.51	26.07859
767.915	26.57236
768.319	25.97955
768.724	25.98108
769.128	25.70087
769.532	25.54314
769.936	25.73722
770.341	25.44306
770.745	26.18625
771.149	24.99528
771.553	25.88057
771.957	25.09349
772.361	25.94692
772.764	25.89543
773.168	25.26004
773.572	25.82635
773.976	25.07898
774.379	25.48335
774.783	24.91233
775.186	25.57546
775.59	25.27554
775.993	24.8629
776.396	25.67844
776.8	24.99672
777.203	25.44459
777.606	25.33042
778.009	25.36751
778.412	25.39437
778.815	25.35613
779.218	25.53055
779.621	25.09683
780.023	25.88733
780.426	25.3899
780.829	25.52529
781.231	25.52116
781.634	24.99342
782.036	25.53664
782.439	25.16694
782.841	25.4819
783.244	25.46339
783.646	25.27404
784.048	25.78551
784.45	25.4101
784.852	25.5003
785.254	25.63339
785.656	25.13702
786.058	25.42811
786.46	25.10007
786.862	25.31074
787.264	24.55599
787.665	25.14682
788.067	25.1137
788.468	25.23965
788.87	25.50744
789.271	24.8137
789.673	25.57479
790.074	25.54909
790.475	25.56156
790.877	25.42551
791.278	25.05992
791.679	25.64952
792.08	25.36291
792.481	25.50846
792.882	25.84585
793.283	25.13282
793.683	26.23132
794.084	25.24921
794.485	25.5111
794.886	25.24928
795.286	25.36534
795.687	25.87335
796.087	25.07597
796.487	25.39527
796.888	25.48774
797.288	25.25092
797.688	25.58074
798.088	25.18906
798.489	25.54236
798.889	25.63107
799.289	25.44439
799.689	25.57074
800.088	24.86105
800.488	25.83675
800.888	25.62289
801.288	25.04413
801.687	25.97021
802.087	25.33251
802.486	26.08118
802.886	25.95238
803.285	25.45469
803.685	26.60016
804.084	25.91882
804.483	25.96136
804.882	26.12268
805.281	25.79727
805.68	26.30361
806.079	26.22226
806.478	26.16243
806.877	26.2587
807.276	25.01042
807.675	26.12942
808.074	25.7567
808.472	26.28542
808.871	26.09828
809.269	25.45102
809.668	26.28786
810.066	26.47128
810.465	26.14372
810.863	26.45081
811.261	26.0681
811.659	26.22701
812.057	26.44843
812.455	26.08431
812.853	26.6432
813.251	26.17405
813.649	26.38443
814.047	26.38388
814.445	25.54182
814.843	26.6343
815.24	26.32742
815.638	26.26931
816.035	26.39342
816.433	26.11156
816.83	26.56646
817.228	26.68503
817.625	25.81252
818.022	26.90219
818.419	26.33106
818.816	26.25633
819.213	26.65577
819.61	26.06242
820.007	26.66369
820.404	26.60597
820.801	26.6544
821.198	27.58988
821.595	26.78334
821.991	27.25577
822.388	28.13578
822.784	27.56566
823.181	28.28022
823.577	28.33957
823.974	28.15271
824.37	28.24863
824.766	28.05317
825.162	27.93852
825.558	27.8328
825.954	27.06787
826.35	28.03101
826.746	27.98681
827.142	27.74367
827.538	28.50457
827.934	28.19908
828.33	28.0501
828.725	28.34795
829.121	27.83159
829.516	27.53035
829.912	27.54414
830.307	27.56052
830.703	27.50096
831.098	27.18238
831.493	26.91464
831.888	27.25758
832.283	26.802
832.678	27.06996
833.073	27.41885
833.468	27.06424
833.863	27.79996
834.258	28.22403
834.653	27.80202
835.048	28.152
835.442	27.85475
835.837	27.60501
836.231	28.03367
836.626	27.77475
837.02	26.99365
837.415	28.02895
837.809	27.1856
838.203	27.47204
838.597	27.69694
838.991	26.43076
839.385	27.26822
839.779	27.45123
840.173	27.42631
840.567	27.66069
840.961	28.0046
841.355	27.87394
841.748	27.84259
842.142	27.42206
842.536	27.54013
842.929	28.2812
843.323	28.08741
843.716	27.36073
844.109	27.81878
844.503	27.72448
844.896	27.80117
845.289	27.98324
845.682	27.63809
846.075	28.06999
846.468	28.23453
846.861	27.49859
847.254	28.03713
847.647	27.72192
848.04	27.46774
848.432	28.07512
848.825	28.02239
849.217	27.80788
849.61	28.25309
850.002	28.04811
850.395	28.51497
850.787	28.27611
851.179	27.33853
851.572	27.96616
851.964	27.75831
852.356	27.29552
852.748	27.68282
853.14	28.33999
853.532	27.28829
853.924	28.24081
854.315	28.20628
854.707	27.13054
855.099	28.24417
855.491	28.0516
855.882	27.27729
856.274	27.5529
856.665	27.6404
857.056	27.35588
857.448	28.25307
857.839	27.86192
858.23	27.42346
858.621	28.01355
859.012	27.59572
859.403	26.74297
859.794	28.31685
860.185	28.0023
860.576	27.50473
860.967	28.01615
861.358	28.27051
861.748	27.5962
862.139	27.42731
862.529	28.68033
862.92	27.41054
863.31	28.0838
863.701	27.37803
864.091	27.06931
864.481	27.78415
864.872	27.70245
865.262	27.12105
865.652	27.73849
866.042	27.84553
866.432	27.26827
866.822	27.48853
867.211	27.69927
867.601	26.86242
867.991	27.81488
868.381	27.84874
868.77	26.94426
869.16	28.25203
869.549	27.40005
869.939	26.88975
870.328	27.8228
870.717	27.71703
871.106	27.3261
871.496	27.6927
871.885	27.48875
872.274	27.52894
872.663	28.22346
873.052	28.12014
873.441	27.53308
873.829	27.97724
874.218	27.08491
874.607	26.84816
874.996	27.86979
875.384	27.44289
875.773	26.6976
876.161	27.39618
876.549	26.87554
876.938	27.08362
877.326	27.50412
877.714	27.72515
878.102	26.87928
878.491	27.06069
878.879	27.89376
879.267	26.61697
879.655	27.21359
880.042	28.02297
880.43	27.28648
880.818	27.81761
881.206	28.27886
881.593	27.82719
881.981	27.65612
882.368	28.24056
882.756	28.19405
883.143	27.80912
883.53	28.01373
883.918	27.71361
884.305	27.29698
884.692	27.79892
885.079	27.70392
885.466	27.10474
885.853	27.57646
886.24	27.85916
886.627	27.45714
887.014	27.41712
887.4	27.78784
887.787	27.03402
888.174	27.31741
888.56	27.23464
888.947	26.81617
889.333	26.67975
889.719	27.33212
890.106	27.12073
890.492	26.48879
890.878	27.1315
891.264	27.82639
891.65	26.23064
892.036	27.23148
892.422	27.2216
892.808	26.67435
893.194	26.31174
893.58	27.06142
893.965	26.76896
894.351	26.36469
894.736	26.90862
895.122	27.11528
895.507	26.95336
895.893	27.56741
896.278	27.28885
896.663	26.7059
897.049	27.03417
897.434	27.6715
897.819	27.21544
898.204	27.88089
898.589	27.38579
898.974	27.20253
899.359	27.00877
899.743	27.50863
900.128	27.38511
900.513	26.48821
900.897	27.19769
901.282	26.45689
901.667	26.22889
902.051	26.81329
902.435	26.95404
902.82	26.16459
903.204	26.36721
903.588	26.96513
903.972	27.09857
904.356	27.05646
904.74	27.42602
905.124	27.56246
905.508	27.11234
905.892	27.09386
906.276	26.79586
906.659	27.12204
907.043	26.86416
907.427	27.08186
907.81	27.32108
908.194	26.90155
908.577	26.69826
908.96	26.48833
909.344	26.76363
909.727	26.561
910.11	26.59848
910.493	26.4803
910.876	26.95991
911.259	26.58327
911.642	26.50292
912.025	26.03273
912.408	26.38974
912.79	26.23895
913.173	26.09762
913.556	25.36957
913.938	25.97503
914.321	26.06255
914.703	25.65229
915.086	26.62704
915.468	26.61576
915.85	26.37651
916.232	26.19715
916.614	26.8937
916.996	25.95709
917.378	26.16493
917.76	27.09009
918.142	27.06567
918.524	25.83166
918.906	26.56415
919.288	26.15234
919.669	26.9686
920.051	26.5716
920.432	26.4304
920.814	25.78169
921.195	25.71398
921.577	26.34711
921.958	26.27068
922.339	25.34567
922.72	26.15132
923.101	25.7159
923.482	25.82099
923.863	25.62363
924.244	26.62913
924.625	25.27771
925.006	25.9302
925.387	26.16601
925.767	26.25051
926.148	26.52264
926.528	25.84697
926.909	25.31755
927.289	27.01498
927.67	24.84112
928.05	25.14553
928.43	24.74177
928.81	25.96974
929.191	24.33537
929.571	25.61105
929.951	25.8332
930.331	25.6034
930.71	25.6034
931.09	25.15192
931.47	26.43892
931.85	26.80699
932.229	25.06919
932.609	25.092
932.988	25.66896
933.368	26.26087
933.747	25.01465
934.127	25.21848
934.506	25.50534
934.885	25.49016
935.264	24.9326
935.643	25.03919
936.022	24.85067
936.401	23.72842
936.78	26.11411
937.159	24.1745
937.538	24.02332
937.916	24.84817
938.295	24.57624
938.674	24.17643
939.052	25.09617
939.431	25.23792
939.809	25.44132
940.187	24.72323
940.566	23.75378
940.944	25.22717
941.322	25.61143
941.7	23.0697
942.078	24.7847
942.456	24.32067
942.834	24.40354
943.212	23.49016
943.59	24.62692
943.968	24.2509
944.345	25.06768
944.723	22.70069
945.1	23.29216
945.478	22.325
945.855	23.13763
946.233	22.17714
946.61	23.05886
946.987	24.00042
947.365	20.72861
947.742	23.34658
948.119	23.10333
948.496	24.31825
948.873	23.09054
949.25	24.13721
949.626	23.95243
950.003	24.25246
950.38	22.89529
950.756	23.25053
951.133	23.13436
951.51	23.63472
951.886	23.63753
952.262	23.91417
952.639	22.61059
953.015	23.93953
953.391	23.76889
953.767	21.51254
954.143	22.86717
954.519	22.58625
954.895	24.09576
955.271	22.692
955.647	22.07044
956.023	22.12574
956.399	23.2881
956.774	21.52458
957.15	23.39593
957.525	22.71545
957.901	24.16553
958.276	21.98772
958.652	22.0597
959.027	21.06661
959.402	22.31297
959.777	23.39079
960.152	21.0896
960.527	20.62972
960.902	23.54075
961.277	21.67225
961.652	23.62612
962.027	20.57571
962.402	22.20044
962.776	20.44363
963.151	21.4817
963.525	23.65388
963.9	21.17229
964.274	22.58275
964.649	22.23045
965.023	20.22599
965.397	21.85202
965.771	21.01566
966.146	22.87496
966.52	21.48633
966.894	22.1632
967.268	20.70461
967.641	19.77151
968.015	22.21251
968.389	23.2998
968.763	23.69941
969.136	21.75743
969.51	20.11916
969.883	20.99703
970.257	21.68931
970.63	20.24364
971.003	20.0929
971.377	21.64791
971.75	21.30286
972.123	23.23513
972.496	21.65768
972.869	22.96632
973.242	23.44161
973.615	21.82078
973.988	20.39542
974.36	20.427
974.733	22.10217
975.106	22.36424
975.478	21.29796
975.851	21.54531
976.223	21.3595
976.596	21.29852
976.968	22.0067
977.34	21.54723
977.712	21.02888
978.085	20.2407
978.457	21.02702
978.829	21.79285
979.201	22.33454
979.573	22.35449
979.944	21.92889
980.316	22.07744
980.688	22.66611
981.059	22.01682
981.431	20.26922
981.803	19.97299
982.174	22.5673
982.545	20.2332
982.917	21.5644
983.288	20.62601
983.659	18.80009
984.03	21.26453
984.401	19.89222
984.772	22.5869
985.143	21.50701
985.514	19.8973
985.885	20.89803
986.256	21.13678
986.627	19.7772
986.997	20.45333
987.368	20.07033
987.738	21.08438
988.109	21.2766
988.479	19.88182
988.85	21.5062
989.22	21.55336
989.59	20.10911
989.96	20.04375
990.33	20.64835
990.7	21.27994
991.07	20.64827
991.44	21.04769
991.81	21.48567
992.18	21.2816
992.549	20.31145
992.919	19.91133
993.289	20.10678
993.658	19.97561
994.028	22.02563
994.397	19.57227
994.766	22.91259
995.136	22.05241
995.505	19.57446
995.874	23.26761
996.243	19.26564
996.612	22.38676
996.981	21.6134
997.35	18.9017
997.719	19.45084
998.088	18.17216
998.456	21.17464
998.825	18.61575
999.194	22.5913
999.562	16.87776
999.931	21.54216
1000.299	16.13133
1000.667	18.00381
1001.036	17.49285
1001.404	19.14659
1001.772	15.41302
1002.14	15.55064
1002.508	16.77139
1002.876	17.90721
1003.244	19.58576
1003.612	14.43972
1003.98	16.54006
1004.347	14.67059
1004.715	19.78018
1005.083	18.2098
1005.45	16.95105
1005.818	17.02575
1006.185	18.29291
1006.552	18.07847
1006.92	18.94565
1007.287	15.75199
1007.654	12.82122
1008.021	19.18868
1008.388	18.40077
1008.755	19.92655
1009.122	13.84194
1009.489	15.25725
1009.856	16.81943
1010.222	15.15231
1010.589	20.42308
1010.956	14.18359
1011.322	19.15248
1011.689	20.05046
1012.055	17.82424
1012.421	12.62828
1012.788	14.75684
1013.154	15.14681
1013.52	19.04448
1013.886	13.4659
1014.252	12.91764
1014.618	15.59109
1014.984	11.93813
1015.35	15.74626
1015.716	13.73342
1016.081	12.16702
1016.447	14.85494
1016.813	14.59798
1017.178	16.00895
1017.544	12.03679
1017.909	15.51035
1018.274	12.4816
1018.64	15.98387
1019.005	8.85421
1019.37	12.75874
1019.735	15.89185
1020.1	5.548
1020.465	18.58568
1020.83	17.63666
1021.195	2.59218
1021.56	9.1939
1021.924	11.64333
1022.289	13.19328
1022.654	9.97258
1023.018	3.43856
1023.383	7.13485
1023.747	7.79347
1024.111	4.67983
1024.476	11.8408
1024.84	11.27058
1025.204	9.42815
1025.568	13.71662
1025.932	14.76642
1026.296	19.23604
1026.66	8.58144
1027.024	9.37958
1027.387	3.34323
1027.751	9.99188
1028.115	13.42214
1028.478	2.65601
1028.842	3.02078
1029.205	12.68511
1029.569	10.11811
1029.932	13.30807
1030.295	13.136
1030.659	5.65594
1031.022	-0.2582
1031.385	-1.00171
1031.748	5.02
1032.111	0.78476
1032.474	4.60021
1032.836	-5.25944
1033.199	3.8541
1033.562	-3.83216
1033.924	10.49165
1034.287	11.56818
1034.65	-13.72108
1035.012	1.35404
1035.374	-3.71164
1035.737	-13.063
1036.099	11.52005
1036.461	0.65535
1036.823	-7.75869
1037.185	4.60795
1037.547	-1.5664
1037.909	-15.91221
1038.271	11.7588
1038.633	-10.48299
1038.995	0
1039.356	-5.16931
1039.718	-2.95041
1040.08	-0.35567
1040.441	-8.36033
1040.803	-3.77154
1041.164	-21.20894
1041.525	-5.94462
1041.886	-2.29764
1042.248	1.95216
1042.609	0.98626
1042.97	-11.26946
1043.331	7.59057
1043.692	-6.31614
1044.053	-20.66285
1044.413	-14.60465
1044.774	1.58025
1045.135	-22.41832
1045.495	-14.47244
1045.856	-22.21258
1046.216	-13.28645
1046.577	8.59926
1046.937	4.84375
1047.298	-6.62419
