Data from 1014water-6_Reflection__19__23-51-33-115.txt Node

Date: Tue Oct 14 23:51:33 AST 2025
User: lin
Spectrometer: SR600411
Trigger mode: 0
Integration Time (sec): 5.910000E-2
Scans to average: 5
Nonlinearity correction enabled: true
Boxcar width: 0
Storing dark spectrum: false
XAxis mode: Wavelengths
Number of Pixels in Spectrum: 2048
>>>>>Begin Spectral Data<<<<<
187.982	47.1503
188.456	34.0621
188.93	45.08557
189.403	53.48776
189.877	34.14559
190.351	30.63215
190.825	35.93941
191.298	15.34503
191.772	41.98023
192.246	28.61539
192.719	20.58274
193.193	28.49605
193.666	16.736
194.139	28.74593
194.613	30.51165
195.086	36.85357
195.559	38.22103
196.033	49.21475
196.506	35.96167
196.979	47.17351
197.452	46.29116
197.925	54.08045
198.398	52.65244
198.871	47.46843
199.344	45.51272
199.816	36.69188
200.289	36.03476
200.762	36.39562
201.235	27.66972
201.707	17.36054
202.18	44.50857
202.652	5.59291
203.125	21.37837
203.597	31.29215
204.07	-11.59068
204.542	18.26616
205.014	14.70251
205.486	7.74448
205.959	23.5613
206.431	-15.0907
206.903	38.38762
207.375	15.19682
207.847	30.5811
208.319	7.51697
208.791	-13.09278
209.263	29.45207
209.734	3.8452
210.206	-94.49404
210.678	10.14244
211.15	8.99838
211.621	-3.40848
212.093	1.52633
212.564	-93.52624
213.036	15.30361
213.507	15.50054
213.979	-7.40571
214.45	21.34536
214.921	19.00458
215.392	11.01467
215.864	-15.2142
216.335	-5.61693
216.806	-43.93115
217.277	-15.05058
217.748	21.34536
218.219	19.41429
218.69	-97.9404
219.161	-22.07383
219.631	16.46828
220.102	12.95935
220.573	-14.63143
221.043	-12.76329
221.514	-53.76207
221.985	-27.53144
222.455	-17.88106
222.926	3.84558
223.396	-28.08356
223.866	-2.43862
224.337	-5.40415
224.807	-25.28191
225.277	-45.55928
225.747	-14.28278
226.217	-19.82214
226.687	-8.33183
227.157	23.75876
227.627	-8.69351
228.097	-1.26562
228.567	12.14727
229.037	-19.78717
229.507	-11.87853
229.977	6.52063
230.446	-77.98628
230.916	3.44751
231.386	-10.58627
231.855	-94.32043
232.325	-37.28216
232.794	-73.15022
233.263	-12.11855
233.733	19.22678
234.202	14.1007
234.671	-4.59687
235.14	-38.02081
235.61	0
236.079	-55.66674
236.548	-40.90157
237.017	-21.9732
237.486	-17.73938
237.955	-15.51519
238.424	0.79345
238.892	-19.47698
239.361	-87.30098
239.83	-15.11332
240.299	-26.22153
240.767	-111.88509
241.236	-33.32569
241.704	-73.66501
242.173	-42.09628
242.641	-19.69389
243.109	-16.80211
243.578	-35.37847
244.046	-76.54542
244.514	-10.95715
244.982	-36.91658
245.451	-63.45087
245.919	11.70944
246.387	-108.90335
246.855	12.93928
247.323	-41.85037
247.791	-22.01256
248.258	-52.67338
248.726	-48.32484
249.194	-79.34737
249.662	-29.22592
250.129	-44.17522
250.597	-49.98903
251.064	6.97564
251.532	-30.54988
251.999	-67.33603
252.467	-33.79648
252.934	-4.83809
253.401	-64.36834
253.869	-29.99383
254.336	3.22523
254.803	-87.70079
255.27	-11.6997
255.737	-24.9958
256.204	-21.12317
256.671	-76.17377
257.138	12.4981
257.605	-101.97963
258.072	-72.95453
258.539	-23.18451
259.005	13.74812
259.472	-36.22515
259.939	-17.64427
260.405	-87.48444
260.872	-64.91877
261.338	-60.77446
261.805	-12.49689
262.271	-119.12469
262.737	11.42647
263.203	-13.15454
263.67	-57.99094
264.136	6.42072
264.602	-15.29116
265.068	-97.48478
265.534	-114.55999
266	-139.50647
266.466	-42.41636
266.932	-116.64568
267.398	-72.29169
267.864	-23.28353
268.329	-19.0448
268.795	-313.71875
269.261	-13.04147
269.726	-26.14961
270.192	-22.49564
270.657	-34.91476
271.123	-34.94186
271.588	-69.37637
272.053	-19.74929
272.519	2.89817
272.984	-81.01767
273.449	-171.40281
273.914	-58.67873
274.379	26.43343
274.844	-20.54437
275.309	-44.27687
275.774	-74.45601
276.239	14.89009
276.704	-15.95401
277.169	-42.38033
277.634	39.7551
278.098	-24.71368
278.563	-41.17061
279.028	-16.46736
279.492	-22.21981
279.957	-70.47731
280.421	-13.95214
280.886	-13.99684
281.35	3.52884
281.814	-37.80287
282.279	-45.11135
282.743	21.77877
283.207	-129.70796
283.671	-104.44931
284.135	-48.60082
284.599	-39.99336
285.063	-45.89357
285.527	-22.0552
285.991	-97.80849
286.455	-26.78195
286.919	-165.36207
287.382	13.23375
287.846	-89.71734
288.31	-14.89044
288.773	-38.23174
289.237	-49.99051
289.7	-20.89218
290.164	-58.8906
290.627	-60.33373
291.09	-16.24701
291.554	-64.39444
292.017	-234.57511
292.48	28.94427
292.943	-86.65227
293.406	-38.45607
293.869	-8.73593
294.332	-57.13416
294.795	0
295.258	-13.43082
295.721	-122.89068
296.184	-19.60548
296.646	-90.14326
297.109	-13.39915
297.572	-392.80356
298.034	-43.9906
298.497	-44.67485
298.959	-1899.77468
299.422	-43.47259
299.884	-6.97611
300.346	-77.98629
300.809	-97.28327
301.271	19.22837
301.733	-56.15172
302.195	-107.11832
302.657	5.2074
303.119	-49.33943
303.581	-162.94012
304.043	-33.327
304.505	-33.32463
304.967	-33.32649
305.429	3.88273
305.891	-33.81744
306.352	-20.96463
306.814	19.75055
307.275	-5.79627
307.737	-34.20363
308.198	23.3739
308.66	-78.76952
309.121	-36.4792
309.583	-82.03976
310.044	-137.91221
310.505	3.4775
310.966	-83.03311
311.428	-1.75418
311.889	-18.45873
312.35	-10.95715
312.811	-295.40374
313.272	-125.61921
313.733	-44.19855
314.193	1139.53951
314.654	-66.13974
315.115	-56.40346
315.576	-77.53769
316.036	-58.44965
316.497	-218.15165
316.957	-328.55195
317.418	-99.9913
317.878	-75.49737
318.339	39.99834
318.799	-18.28918
319.259	-28.56533
319.72	-74.97924
320.18	-27.11462
320.64	-29.99769
321.1	-40.73462
321.56	-31.02982
322.02	-97.94039
322.48	-7.86368
322.94	-199.96916
323.4	-93.98197
323.86	-66.64821
324.319	-690.79036
324.779	-2.27232
325.239	-18.83753
325.698	18.82096
326.158	-19.14682
326.617	-22.80387
327.077	2.38076
327.536	-70.4441
327.996	-5.06246
328.455	-32.4932
328.914	-32.07103
329.373	-40.90157
329.832	-36.03817
330.292	10.75092
330.751	-63.22144
331.21	-134.97494
331.668	-5.20729
332.127	17.26962
332.586	-98.16066
333.045	20.64919
333.504	-146.77489
333.962	-79.08573
334.421	-153.32181
334.88	-129.75956
335.338	-45.82699
335.797	-5.47862
336.255	-41.26258
336.714	-6.18431
337.172	25.63662
337.63	-61.21493
338.088	2.7772
338.547	-114.25523
339.005	-27.70504
339.463	-30.54705
339.921	-19.39992
340.379	-177.50327
340.837	-23.07254
341.295	-26.31205
341.753	-85.43734
342.21	-83.61966
342.668	-54.37649
343.126	-47.13327
343.584	-73.47308
344.041	-26.96027
344.499	-56.39668
344.956	58.48802
345.414	-5.40416
345.871	-119.97654
346.328	-12.11944
346.786	-71.41502
347.243	-25.99676
347.7	-42.84953
348.157	-74.06033
348.614	-15.71177
349.071	-22.96884
349.528	-3232.69373
349.985	10.65344
350.442	-98.43645
350.899	-23.18451
351.356	-29.32771
351.812	-21.50058
352.269	-4.03958
352.726	-19.99811
353.182	-59.32366
353.639	-13.09278
354.095	-54.5326
354.552	-11.76294
355.008	-47.44948
355.465	-52.1631
355.921	-37.49103
356.377	-12.21979
356.833	-49.28546
357.289	-4.81845
357.745	-3.26026
358.201	-36.10413
358.657	-25.24633
359.113	14.99748
359.569	17.89198
360.025	-2.72028
360.481	-0.92573
360.937	-16.66344
361.392	42.35416
361.848	13.5971
362.303	-2.27212
362.759	33.02277
363.214	26.98236
363.67	18.74423
364.125	19.90255
364.581	32.6882
365.036	37.53969
365.491	26.36318
365.946	38.81504
366.401	38.47265
366.856	38.0654
367.311	33.4213
367.766	38.44457
368.221	34.13003
368.676	47.02417
369.131	49.39352
369.586	42.36921
370.041	46.90107
370.495	47.78284
370.95	43.2504
371.404	48.80666
371.859	48.68833
372.313	49.65132
372.768	47.49352
373.222	51.9356
373.676	49.56252
374.131	49.58965
374.585	47.42996
375.039	54.1903
375.493	47.91677
375.947	54.09309
376.401	51.9237
376.855	50.26923
377.309	55.1362
377.763	54.40407
378.217	53.64847
378.67	55.23546
379.124	53.73783
379.578	52.91516
380.031	56.31808
380.485	54.00907
380.938	54.08873
381.392	54.14943
381.845	53.6875
382.299	54.43234
382.752	55.93995
383.205	55.45279
383.658	54.09301
384.111	56.53622
384.564	53.36291
385.018	55.49405
385.471	55.63568
385.923	53.28094
386.376	55.30181
386.829	57.26684
387.282	56.74463
387.735	55.83991
388.187	56.1421
388.64	56.95028
389.093	56.45624
389.545	58.19896
389.998	56.87266
390.45	56.64585
390.902	57.09704
391.355	57.30941
391.807	58.67155
392.259	57.68548
392.711	57.99324
393.163	56.98185
393.615	58.07846
394.068	57.32387
394.519	57.98337
394.971	56.94205
395.423	57.13111
395.875	58.53903
396.327	56.88255
396.779	57.28724
397.23	57.678
397.682	57.69651
398.133	57.2408
398.585	56.84204
399.036	56.845
399.488	57.1358
399.939	56.85214
400.39	57.07474
400.842	56.53488
401.293	56.84137
401.744	56.92461
402.195	56.78357
402.646	57.23347
403.097	56.36189
403.548	56.53346
403.999	56.4726
404.45	57.24354
404.9	56.38631
405.351	56.55298
405.802	56.77321
406.253	56.13874
406.703	56.10253
407.154	56.03677
407.604	55.64061
408.055	55.93446
408.505	55.74511
408.955	55.66794
409.406	55.19956
409.856	54.79162
410.306	54.82123
410.756	54.78223
411.206	54.69623
411.656	54.25886
412.106	54.19759
412.556	53.80317
413.006	53.8622
413.456	53.61112
413.905	53.28104
414.355	53.62028
414.805	53.38854
415.254	53.20564
415.704	53.08217
416.153	53.22542
416.603	53.4977
417.052	52.76346
417.502	52.30667
417.951	52.53534
418.4	52.07651
418.849	51.56584
419.298	51.86565
419.748	51.92091
420.197	52.03358
420.646	51.34556
421.094	51.60432
421.543	50.89864
421.992	51.13702
422.441	51.0765
422.89	50.9347
423.338	51.05362
423.787	50.43506
424.236	49.52293
424.684	49.99776
425.133	50.86619
425.581	49.58274
426.029	49.49163
426.478	49.68169
426.926	49.28333
427.374	49.06669
427.822	49.07306
428.27	48.94522
428.718	49.14968
429.166	49.12436
429.614	48.72422
430.062	48.33042
430.51	48.50613
430.958	48.57284
431.406	48.64453
431.853	48.24861
432.301	48.23793
432.749	48.0999
433.196	47.91651
433.644	47.87492
434.091	47.99348
434.538	47.62147
434.986	47.14785
435.433	47.27681
435.88	46.94444
436.327	47.37876
436.775	47.38878
437.222	47.11902
437.669	46.86501
438.116	47.21236
438.563	47.28907
439.009	47.70257
439.456	47.2041
439.903	47.00593
440.35	46.97332
440.796	46.69136
441.243	47.20542
441.689	47.04047
442.136	47.26485
442.582	47.08554
443.029	46.907
443.475	46.94487
443.921	46.68401
444.368	46.9537
444.814	46.74915
445.26	47.31993
445.706	47.3381
446.152	46.84975
446.598	47.30965
447.044	47.06242
447.49	47.1073
447.936	46.67369
448.381	46.58268
448.827	47.31399
449.273	47.26147
449.718	46.90128
450.164	47.21984
450.61	46.88424
451.055	47.13057
451.5	47.36514
451.946	47.15874
452.391	47.16888
452.836	47.37597
453.282	47.1758
453.727	47.17537
454.172	47.22423
454.617	47.15257
455.062	47.27969
455.507	47.39684
455.952	47.29329
456.396	47.6069
456.841	47.60452
457.286	47.78602
457.731	47.35066
458.175	47.64457
458.62	47.71207
459.064	47.6224
459.509	47.64747
459.953	47.65077
460.398	48.13262
460.842	48.01227
461.286	48.23409
461.73	48.29347
462.174	48.1751
462.619	48.50199
463.063	48.30092
463.507	48.48633
463.951	48.78166
464.394	48.59548
464.838	48.79678
465.282	48.71217
465.726	49.05116
466.17	49.54929
466.613	49.65432
467.057	49.5395
467.5	50.23862
467.944	49.8253
468.387	50.32318
468.831	50.75371
469.274	51.04498
469.717	51.21459
470.16	51.54479
470.603	51.40784
471.047	51.82685
471.49	51.851
471.933	52.25546
472.376	52.22744
472.818	52.56294
473.261	52.58954
473.704	52.48723
474.147	52.82323
474.59	53.44213
475.032	53.15567
475.475	53.44817
475.917	53.88944
476.36	54.20664
476.802	54.23577
477.245	54.66022
477.687	55.12123
478.129	54.95928
478.571	55.23316
479.013	55.0986
479.456	55.39533
479.898	55.71096
480.34	56.0349
480.782	55.98488
481.224	56.59091
481.665	56.49051
482.107	56.62033
482.549	57.11871
482.991	57.31872
483.432	57.26657
483.874	57.5021
484.315	57.31227
484.757	57.74011
485.198	57.59945
485.64	57.98091
486.081	57.77405
486.522	58.03571
486.963	58.1493
487.405	58.41934
487.846	58.66817
488.287	58.97957
488.728	59.17885
489.169	58.99089
489.61	59.2943
490.05	58.88991
490.491	59.1687
490.932	59.1761
491.373	58.90577
491.813	59.49538
492.254	59.29437
492.694	59.75254
493.135	59.78785
493.575	59.75502
494.016	59.60813
494.456	60.08014
494.896	60.19617
495.336	60.78404
495.777	60.96253
496.217	60.7333
496.657	61.45543
497.097	60.88499
497.537	60.53391
497.977	61.49832
498.416	61.41207
498.856	61.8098
499.296	61.52251
499.736	61.65993
500.175	61.7059
500.615	62.04862
501.054	61.34504
501.494	62.47879
501.933	62.73723
502.373	62.64176
502.812	63.1919
503.251	63.26667
503.69	63.0812
504.129	63.72641
504.569	63.4275
505.008	63.84314
505.447	64.35973
505.886	64.84387
506.324	64.62332
506.763	65.43447
507.202	65.19586
507.641	65.39338
508.079	65.87315
508.518	66.49773
508.957	66.0042
509.395	66.13106
509.834	66.76823
510.272	67.05839
510.71	67.07085
511.149	67.11255
511.587	67.07353
512.025	67.19816
512.463	68.07451
512.901	68.12858
513.339	68.49946
513.777	68.29286
514.215	69.08715
514.653	69.72771
515.091	69.81533
515.529	69.37937
515.966	70.45337
516.404	70.66165
516.842	70.49761
517.279	71.05772
517.717	70.85791
518.154	71.31687
518.592	71.6439
519.029	72.01706
519.466	72.05863
519.904	71.75765
520.341	72.84655
520.778	73.2482
521.215	72.78303
521.652	73.63002
522.089	73.89027
522.526	73.61074
522.963	73.74968
523.399	73.82477
523.836	74.53176
524.273	74.85344
524.71	75.28573
525.146	75.77353
525.583	76.03595
526.019	75.94194
526.456	76.62105
526.892	76.63429
527.328	76.92045
527.765	76.44957
528.201	76.72042
528.637	77.12772
529.073	77.73038
529.509	77.79509
529.945	77.67113
530.381	77.84471
530.817	78.81935
531.253	78.47134
531.689	78.76385
532.124	78.99941
532.56	79.15141
532.996	79.16317
533.431	79.67769
533.867	80.26863
534.302	79.25083
534.738	79.74512
535.173	80.16248
535.608	80.29825
536.044	80.34314
536.479	80.71598
536.914	81.19664
537.349	81.46484
537.784	81.4729
538.219	81.41251
538.654	81.40992
539.089	81.48079
539.524	81.09948
539.959	81.40747
540.393	81.04341
540.828	81.78878
541.263	81.79226
541.697	82.0171
542.132	82.28727
542.566	82.37979
543.001	82.50629
543.435	82.03351
543.869	82.35121
544.303	82.14866
544.738	82.75592
545.172	82.05368
545.606	81.90188
546.04	82.31692
546.474	81.98611
546.908	82.49163
547.342	82.31383
547.775	82.26101
548.209	82.02308
548.643	81.46853
549.077	81.50056
549.51	82.33727
549.944	82.20158
550.377	81.26249
550.811	81.67916
551.244	81.89518
551.677	80.68936
552.111	80.91425
552.544	80.28339
552.977	80.40345
553.41	80.89916
553.843	80.50824
554.276	80.14285
554.709	80.11702
555.142	79.86107
555.575	80.16507
556.008	79.58641
556.44	79.65626
556.873	79.36245
557.306	78.85072
557.738	78.5986
558.171	78.18828
558.603	78.31921
559.036	77.58193
559.468	77.73204
559.9	77.49244
560.333	77.17444
560.765	76.92382
561.197	77.30776
561.629	76.79575
562.061	76.22941
562.493	75.70975
562.925	75.55893
563.357	75.38386
563.789	75.37492
564.22	75.31254
564.652	74.81114
565.084	74.7394
565.515	74.36181
565.947	73.95623
566.378	73.28624
566.81	73.41814
567.241	72.51369
567.672	73.06531
568.104	72.7689
568.535	71.97376
568.966	71.90978
569.397	71.60262
569.828	71.11364
570.259	71.67042
570.69	70.76839
571.121	70.4716
571.552	70.37767
571.983	69.87313
572.414	69.31018
572.844	69.02803
573.275	69.26338
573.705	69.06406
574.136	68.55633
574.566	68.44918
574.997	67.99447
575.427	67.4731
575.857	67.49838
576.288	67.29455
576.718	66.87411
577.148	66.80401
577.578	66.30819
578.008	66.54864
578.438	66.04433
578.868	65.35092
579.298	65.50783
579.728	65.09149
580.157	64.44235
580.587	64.33118
581.017	64.13825
581.446	63.33949
581.876	63.25036
582.305	63.38228
582.735	62.73954
583.164	62.16825
583.593	61.84673
584.023	61.78448
584.452	61.64795
584.881	61.42202
585.31	61.54073
585.739	61.39986
586.168	61.11682
586.597	60.87479
587.026	60.97031
587.455	60.61817
587.884	60.32406
588.312	59.74894
588.741	59.65753
589.17	59.28783
589.598	58.68415
590.027	58.39302
590.455	58.52036
590.884	57.96137
591.312	57.95025
591.74	57.65145
592.168	57.3084
592.597	56.82524
593.025	56.39916
593.453	56.18447
593.881	56.16104
594.309	55.7628
594.737	55.48807
595.165	55.16786
595.592	55.04156
596.02	55.12658
596.448	54.87921
596.875	55.01745
597.303	54.44254
597.73	53.98983
598.158	54.12461
598.585	53.57019
599.013	53.62952
599.44	53.68099
599.867	53.58864
600.294	52.86001
600.722	52.9822
601.149	53.07611
601.576	52.6732
602.003	52.41656
602.43	52.58307
602.856	52.17162
603.283	51.62437
603.71	51.57527
604.137	51.62012
604.563	51.61771
604.99	51.29933
605.416	50.86977
605.843	50.16981
606.269	49.92931
606.696	50.13262
607.122	50.14364
607.548	49.9924
607.975	49.95991
608.401	50.02362
608.827	50.05264
609.253	49.69743
609.679	49.35664
610.105	49.94724
610.531	49.1845
610.956	48.66227
611.382	49.1103
611.808	48.78972
612.234	48.21593
612.659	48.52621
613.085	48.46126
613.51	48.26861
613.936	48.03465
614.361	48.19718
614.786	48.32888
615.212	48.17708
615.637	48.16258
616.062	48.08288
616.487	47.77302
616.912	47.72293
617.337	47.38195
617.762	47.34348
618.187	47.27308
618.612	46.80223
619.037	47.03672
619.461	47.02729
619.886	46.85974
620.311	47.20312
620.735	47.23278
621.16	46.77649
621.584	46.71256
622.008	46.83432
622.433	46.94946
622.857	46.70345
623.281	46.93767
623.705	46.65504
624.13	46.5883
624.554	46.69807
624.978	46.65217
625.402	46.83318
625.826	46.34489
626.249	46.52259
626.673	46.79043
627.097	47.1578
627.521	47.09227
627.944	47.08201
628.368	46.98616
628.791	47.05928
629.215	46.7638
629.638	47.07552
630.061	46.95172
630.485	47.27359
630.908	47.29794
631.331	47.16254
631.754	47.19592
632.177	47.22236
632.6	47.27194
633.023	46.9857
633.446	47.66839
633.869	47.43413
634.292	47.53695
634.715	47.54172
635.137	47.97966
635.56	47.9155
635.982	48.18057
636.405	48.05619
636.827	47.97589
637.25	48.55322
637.672	48.22454
638.094	48.6631
638.517	48.40819
638.939	48.63625
639.361	48.71521
639.783	49.15831
640.205	49.15624
640.627	49.23641
641.049	49.70637
641.471	49.28785
641.893	50.2189
642.314	49.84245
642.736	50.0834
643.158	50.22048
643.579	50.29918
644.001	50.71221
644.422	50.41174
644.844	50.76676
645.265	50.78748
645.686	50.85268
646.107	51.45514
646.529	51.21751
646.95	51.43031
647.371	51.97621
647.792	51.78832
648.213	51.75328
648.634	52.1591
649.055	52.29254
649.475	52.37994
649.896	52.81644
650.317	53.06161
650.737	53.78422
651.158	54.0504
651.578	54.32669
651.999	54.52153
652.419	54.31626
652.84	54.19724
653.26	54.67268
653.68	54.98933
654.1	55.48078
654.521	55.08274
654.941	55.34316
655.361	56.42992
655.781	56.21433
656.2	56.56783
656.62	56.33895
657.04	56.79162
657.46	57.72061
657.879	57.31625
658.299	57.35236
658.719	57.79428
659.138	57.66004
659.558	57.6897
659.977	58.18755
660.396	58.01814
660.816	58.62199
661.235	58.1313
661.654	58.90685
662.073	59.16318
662.492	59.2051
662.911	59.81194
663.33	60.11767
663.749	60.30834
664.168	60.49518
664.587	59.95834
665.006	60.64405
665.424	61.39214
665.843	60.89695
666.261	61.21339
666.68	60.98502
667.098	61.44355
667.517	61.98463
667.935	61.91917
668.353	62.52839
668.772	61.99176
669.19	62.27841
669.608	62.50049
670.026	62.88234
670.444	62.7053
670.862	62.56886
671.28	62.91378
671.698	62.71828
672.115	63.4019
672.533	63.51677
672.951	62.92296
673.368	63.4221
673.786	63.28747
674.203	63.21935
674.621	63.678
675.038	63.74777
675.456	64.28614
675.873	63.44868
676.29	62.90803
676.707	63.76975
677.124	62.95734
677.541	63.5474
677.958	63.22533
678.375	63.78785
678.792	63.74168
679.209	63.10688
679.626	64.46827
680.043	63.59061
680.459	64.08125
680.876	63.85019
681.292	63.7919
681.709	64.05763
682.125	63.42251
682.542	64.25279
682.958	63.657
683.374	63.66756
683.79	63.51444
684.207	63.26283
684.623	63.66504
685.039	63.48554
685.455	63.33915
685.871	63.51336
686.286	62.87596
686.702	62.54053
687.118	62.84211
687.534	62.60247
687.949	62.03307
688.365	62.09337
688.781	61.81375
689.196	62.2351
689.611	61.55833
690.027	61.77358
690.442	61.96785
690.857	61.05603
691.273	61.0696
691.688	60.73394
692.103	60.94627
692.518	60.31053
692.933	60.78678
693.348	59.99315
693.763	60.47534
694.177	60.46771
694.592	60.01382
695.007	60.08611
695.421	59.68483
695.836	59.50382
696.25	58.80685
696.665	58.69481
697.079	57.9571
697.494	58.30447
697.908	58.21237
698.322	57.62871
698.736	57.12042
699.151	57.08426
699.565	56.72172
699.979	56.93204
700.393	56.55727
700.806	56.01927
701.22	55.85818
701.634	55.67754
702.048	55.77535
702.461	54.70105
702.875	54.99567
703.289	54.48219
703.702	54.7919
704.116	54.37199
704.529	54.21804
704.942	53.65317
705.356	53.35168
705.769	53.07338
706.182	52.61865
706.595	52.68759
707.008	51.89799
707.421	52.08393
707.834	51.54364
708.247	51.32392
708.66	50.45283
709.072	51.22407
709.485	50.4707
709.898	50.56422
710.31	49.2635
710.723	49.54199
711.135	49.10136
711.548	49.31411
711.96	48.58925
712.373	48.92573
712.785	47.89431
713.197	47.87385
713.609	47.47603
714.021	47.29596
714.433	46.664
714.845	46.48106
715.257	46.20674
715.669	46.06971
716.081	45.60444
716.493	45.2167
716.904	45.19601
717.316	44.16957
717.727	44.71625
718.139	43.66613
718.55	43.86335
718.962	43.19226
719.373	43.60497
719.784	42.63557
720.196	42.79552
720.607	42.71257
721.018	42.23467
721.429	41.9674
721.84	41.9756
722.251	40.9438
722.662	41.59286
723.073	40.4252
723.483	40.41495
723.894	39.56078
724.305	40.28949
724.715	39.23139
725.126	39.21075
725.536	38.77391
725.947	39.15868
726.357	37.9629
726.768	38.12362
727.178	37.69049
727.588	38.09205
727.998	37.26586
728.408	37.40365
728.818	36.35436
729.228	37.02757
729.638	36.32307
730.048	36.36475
730.458	36.06913
730.868	36.08676
731.277	35.22232
731.687	35.59289
732.097	35.48404
732.506	34.97671
732.916	35.14673
733.325	34.89664
733.734	34.60961
734.144	34.20847
734.553	34.43725
734.962	33.34904
735.371	34.10481
735.78	33.20635
736.189	33.84263
736.598	33.06601
737.007	33.49685
737.416	32.29539
737.825	32.3563
738.233	31.73961
738.642	32.4895
739.051	31.67645
739.459	32.41593
739.868	31.46763
740.276	32.06565
740.684	31.0928
741.093	31.74566
741.501	31.1205
741.909	31.015
742.317	30.68889
742.725	30.50232
743.133	30.37014
743.541	30.2951
743.949	30.55773
744.357	29.93059
744.765	30.12373
745.173	29.67871
745.58	30.39471
745.988	28.96659
746.396	29.98472
746.803	29.08676
747.211	29.66744
747.618	29.18185
748.025	28.97632
748.433	28.84199
748.84	28.84692
749.247	28.8723
749.654	28.26538
750.061	28.26797
750.468	27.74019
750.875	28.39147
751.282	27.97107
751.689	28.329
752.096	27.31636
752.502	28.23587
752.909	27.44575
753.316	28.25069
753.722	27.815
754.129	27.48698
754.535	27.55438
754.941	27.18117
755.348	27.92419
755.754	26.73314
756.16	27.89901
756.566	27.01126
756.972	27.38922
757.378	26.94944
757.784	27.33248
758.19	26.82848
758.596	26.68765
759.002	27.0308
759.408	26.48215
759.813	27.20451
760.219	26.57201
760.624	26.95273
761.03	26.52872
761.435	26.80109
761.841	26.0185
762.246	26.03983
762.651	26.23893
763.057	26.06143
763.462	26.79528
763.867	26.30289
764.272	27.01768
764.677	26.77102
765.082	26.86749
765.487	26.64395
765.892	26.34415
766.296	26.60263
766.701	26.08591
767.106	26.73392
767.51	26.05345
767.915	26.40042
768.319	25.74697
768.724	25.66103
769.128	25.82938
769.532	25.29124
769.936	26.07844
770.341	25.34
770.745	26.26652
771.149	25.11146
771.553	25.8015
771.957	25.36333
772.361	25.21455
772.764	25.68441
773.168	25.23274
773.572	26.06285
773.976	25.12446
774.379	25.32474
774.783	25.18954
775.186	25.3548
775.59	25.05431
775.993	24.88644
776.396	25.39149
776.8	24.5732
777.203	25.53348
777.606	25.43045
778.009	25.25217
778.412	25.54785
778.815	24.75886
779.218	25.62783
779.621	24.82013
780.023	25.47978
780.426	25.45658
780.829	25.49181
781.231	25.55738
781.634	24.81988
782.036	25.75589
782.439	25.16134
782.841	25.37746
783.244	25.14738
783.646	25.40997
784.048	25.62856
784.45	24.40826
784.852	25.47435
785.254	25.10205
785.656	25.18243
786.058	25.43367
786.46	25.24391
786.862	25.43764
787.264	24.94806
787.665	25.137
788.067	25.12811
788.468	25.24204
788.87	25.22984
789.271	24.41962
789.673	25.19564
790.074	25.05954
790.475	25.41006
790.877	25.49367
791.278	25.04389
791.679	25.38125
792.08	24.93469
792.481	25.06939
792.882	25.73526
793.283	25.05592
793.683	25.89629
794.084	25.01439
794.485	25.21886
794.886	25.00653
795.286	25.13615
795.687	25.73454
796.087	24.86443
796.487	25.53582
796.888	25.5622
797.288	24.80315
797.688	25.4004
798.088	25.08021
798.489	25.19893
798.889	25.22792
799.289	25.33717
799.689	25.73949
800.088	24.73852
800.488	25.28194
800.888	25.41151
801.288	25.04413
801.687	25.79953
802.087	24.9968
802.486	25.609
802.886	25.4947
803.285	24.79252
803.685	26.23481
804.084	25.75414
804.483	25.58693
804.882	25.62174
805.281	25.05561
805.68	25.77911
806.079	25.38849
806.478	26.1031
806.877	26.00771
807.276	25.40072
807.675	25.32019
808.074	25.67811
808.472	25.60749
808.871	26.24209
809.269	25.2169
809.668	26.13443
810.066	26.037
810.465	25.85773
810.863	26.28662
811.261	25.65478
811.659	25.89662
812.057	26.0088
812.455	25.79811
812.853	26.22597
813.251	25.70973
813.649	25.8985
814.047	25.99296
814.445	25.6625
814.843	26.34379
815.24	25.81619
815.638	25.77771
816.035	26.37011
816.433	25.75446
816.83	26.15608
817.228	26.20485
817.625	25.35435
818.022	25.90685
818.419	25.84353
818.816	25.92931
819.213	26.13689
819.61	25.74325
820.007	26.41818
820.404	26.53245
820.801	26.5095
821.198	27.20465
821.595	26.59772
821.991	26.93621
822.388	27.68251
822.784	27.28968
823.181	27.84534
823.577	27.99845
823.974	27.77432
824.37	28.15103
824.766	27.6653
825.162	27.31776
825.558	27.34902
825.954	26.90069
826.35	27.76881
826.746	27.64015
827.142	27.16235
827.538	27.83228
827.934	27.9565
828.33	27.52124
828.725	27.74788
829.121	27.46488
829.516	27.36576
829.912	27.33849
830.307	26.8982
830.703	26.96634
831.098	26.99793
831.493	26.55411
831.888	27.26944
832.283	26.49209
832.678	26.5891
833.073	27.21675
833.468	27.04971
833.863	27.57177
834.258	27.92117
834.653	27.2951
835.048	27.69215
835.442	27.65356
835.837	27.1853
836.231	27.51589
836.626	27.33023
837.02	27.0775
837.415	27.95059
837.809	26.53562
838.203	27.56415
838.597	27.5627
838.991	26.5325
839.385	27.05257
839.779	27.17874
840.173	26.79019
840.567	27.37246
840.961	27.45012
841.355	27.47778
841.748	27.35789
842.142	27.11015
842.536	27.46626
842.929	28.06644
843.323	27.45875
843.716	27.02503
844.109	27.3264
844.503	26.83528
844.896	27.62374
845.289	27.84243
845.682	27.04521
846.075	28.14506
846.468	27.26283
846.861	28.04616
847.254	28.16117
847.647	27.34955
848.04	26.85074
848.432	27.58015
848.825	27.88172
849.217	27.42881
849.61	28.32522
850.002	27.67783
850.395	27.45979
850.787	28.29818
851.179	27.52948
851.572	27.55275
851.964	27.32611
852.356	27.00637
852.748	27.05445
853.14	27.27535
853.532	27.6306
853.924	27.19957
854.315	27.72517
854.707	26.77931
855.099	27.42733
855.491	27.86126
855.882	26.89893
856.274	28.39044
856.665	27.44546
857.056	26.90764
857.448	27.49236
857.839	27.46137
858.23	26.79512
858.621	28.56149
859.012	27.25905
859.403	27.05185
859.794	28.02108
860.185	27.38742
860.576	27.05054
860.967	27.90252
861.358	27.96398
861.748	26.79834
862.139	27.58876
862.529	27.58296
862.92	27.01067
863.31	28.18332
863.701	26.46855
864.091	27.52241
864.481	27.15807
864.872	27.24485
865.262	27.28327
865.652	28.1266
866.042	27.32228
866.432	27.57095
866.822	26.94499
867.211	27.3994
867.601	26.83846
867.991	27.99766
868.381	27.47635
868.77	27.2097
869.16	27.81633
869.549	27.12722
869.939	26.57818
870.328	27.5704
870.717	27.19957
871.106	27.06558
871.496	27.22705
871.885	27.76076
872.274	27.37489
872.663	27.99622
873.052	27.99655
873.441	27.01098
873.829	27.14656
874.218	27.26814
874.607	26.28583
874.996	26.82285
875.384	27.38418
875.773	26.74213
876.161	27.40679
876.549	26.95115
876.938	26.77863
877.326	26.75831
877.714	27.52005
878.102	26.53467
878.491	26.4399
878.879	27.51819
879.267	26.67585
879.655	27.10294
880.042	27.68311
880.43	27.27022
880.818	27.42986
881.206	28.10938
881.593	27.81009
881.981	27.57231
882.368	27.99135
882.756	28.10662
883.143	27.68862
883.53	27.58277
883.918	27.27739
884.305	27.16253
884.692	27.48986
885.079	27.52281
885.466	26.91033
885.853	27.25499
886.24	27.33645
886.627	27.15857
887.014	27.39777
887.4	27.38458
887.787	26.73074
888.174	26.58922
888.56	26.91523
888.947	26.70423
889.333	26.61674
889.719	27.14777
890.106	26.98961
890.492	26.00063
890.878	26.72641
891.264	27.05527
891.65	26.30453
892.036	26.69039
892.422	26.75652
892.808	25.96231
893.194	25.79475
893.58	26.57806
893.965	26.26812
894.351	26.29668
894.736	26.42952
895.122	26.63917
895.507	26.55817
895.893	26.68292
896.278	26.90287
896.663	26.66929
897.049	26.42429
897.434	26.76655
897.819	26.61704
898.204	27.31922
898.589	26.97978
898.974	26.5022
899.359	26.7356
899.743	26.81093
900.128	27.14668
900.513	26.65018
900.897	27.31335
901.282	26.41372
901.667	25.85436
902.051	26.6764
902.435	27.05903
902.82	25.65879
903.204	25.83927
903.588	26.72945
903.972	26.76548
904.356	26.47702
904.74	26.68007
905.124	27.07516
905.508	26.19157
905.892	26.96815
906.276	26.51455
906.659	26.79716
907.043	26.46117
907.427	27.05718
907.81	26.84312
908.194	26.896
908.577	27.07296
908.96	26.90631
909.344	26.11615
909.727	25.72586
910.11	26.79712
910.493	26.0356
910.876	25.25604
911.259	26.10626
911.642	26.43035
912.025	25.377
912.408	26.16337
912.79	25.92139
913.173	25.30067
913.556	25.92859
913.938	26.19754
914.321	25.84778
914.703	25.34782
915.086	26.23516
915.468	26.50463
915.85	25.98966
916.232	26.19242
916.614	26.60607
916.996	25.9182
917.378	26.29221
917.76	26.53301
918.142	26.65931
918.524	26.00155
918.906	26.23965
919.288	26.45
919.669	26.84779
920.051	26.66211
920.432	26.27644
920.814	25.72853
921.195	25.80178
921.577	25.54228
921.958	25.58181
922.339	26.32494
922.72	25.45563
923.101	25.88969
923.482	26.02532
923.863	26.08815
924.244	25.35061
924.625	25.61759
925.006	25.91292
925.387	24.53673
925.767	25.87747
926.148	25.99563
926.528	25.41055
926.909	26.17719
927.289	25.53202
927.67	24.65832
928.05	25.92433
928.43	24.82365
928.81	25.78052
929.191	25.66754
929.571	24.37479
929.951	26.11613
930.331	25.46311
930.71	24.82293
931.09	24.68341
931.47	25.62952
931.85	26.08014
932.229	25.19546
932.609	25.51463
932.988	24.40954
933.368	24.06133
933.747	25.71131
934.127	24.29396
934.506	25.30071
934.885	23.73464
935.264	24.45203
935.643	26.28306
936.022	24.53639
936.401	24.82184
936.78	25.90698
937.159	25.02754
937.538	24.58208
937.916	24.41362
938.295	24.03264
938.674	23.45018
939.052	23.81115
939.431	25.17288
939.809	24.13158
940.187	23.73823
940.566	24.4405
940.944	24.39183
941.322	24.85503
941.7	22.5619
942.078	25.61936
942.456	24.44148
942.834	24.19749
943.212	23.40274
943.59	24.09784
943.968	23.27846
944.345	24.55114
944.723	23.55457
945.1	21.91364
945.478	23.3439
945.855	22.97718
946.233	22.3363
946.61	23.05886
946.987	24.97861
947.365	21.94974
947.742	22.12333
948.119	23.24466
948.496	23.42951
948.873	22.66125
949.25	22.41002
949.626	22.17945
950.003	23.3475
950.38	22.11173
950.756	25.45822
951.133	23.04571
951.51	22.35275
951.886	22.70202
952.262	24.02887
952.639	23.11546
953.015	23.01296
953.391	22.548
953.767	21.5765
954.143	23.68224
954.519	22.56365
954.895	24.14409
955.271	23.0908
955.647	22.70355
956.023	22.17914
956.399	22.38681
956.774	23.89925
957.15	22.65421
957.525	21.6349
957.901	23.22106
958.276	21.68692
958.652	22.0597
959.027	21.09696
959.402	23.88159
959.777	21.37962
960.152	22.69714
960.527	22.03888
960.902	21.64849
961.277	21.60619
961.652	21.24072
962.027	21.40109
962.402	21.29113
962.776	20.83979
963.151	20.32433
963.525	20.83294
963.9	21.04
964.274	21.57214
964.649	19.50319
965.023	20.22599
965.397	21.19527
965.771	21.88533
966.146	22.70526
966.52	21.65186
966.894	22.6223
967.268	19.37489
967.641	21.21404
968.015	20.57448
968.389	23.4537
968.763	22.91062
969.136	21.03763
969.51	22.05643
969.883	21.46825
970.257	19.69907
970.63	19.6977
971.003	20.61081
971.377	23.03629
971.75	21.56281
972.123	22.15422
972.496	21.46527
972.869	22.36509
973.242	21.07057
973.615	20.16217
973.988	20.6557
974.36	21.18111
974.733	20.14007
975.106	19.18462
975.478	23.29511
975.851	21.70698
976.223	20.13549
976.596	21.23144
976.968	20.78972
977.34	22.28897
977.712	20.79955
978.085	20.27695
978.457	22.47051
978.829	21.51759
979.201	22.26413
979.573	21.6629
979.944	22.45304
980.316	21.8055
980.688	22.5666
981.059	21.80132
981.431	19.26723
981.803	21.00362
982.174	21.42682
982.545	20.54378
982.917	20.77023
983.288	20.24032
983.659	20.97265
984.03	21.10461
984.401	20.85259
984.772	21.84713
985.143	19.94645
985.514	18.33824
985.885	21.21123
986.256	20.88278
986.627	20.75661
986.997	20.06342
987.368	19.27459
987.738	19.30441
988.109	17.77182
988.479	21.19314
988.85	21.09406
989.22	21.29623
989.59	21.14129
989.96	20.14212
990.33	20.49148
990.7	20.29856
991.07	20.81724
991.44	19.07457
991.81	20.90598
992.18	21.01197
992.549	20.84116
992.919	20.33029
993.289	20.23743
993.658	20.1139
994.028	22.28105
994.397	19.35722
994.766	21.38496
995.136	21.33398
995.505	19.79808
995.874	20.59102
996.243	19.54644
996.612	20.99353
996.981	19.4984
997.35	18.09881
997.719	19.99778
998.088	17.59415
998.456	18.53047
998.825	18.35995
999.194	20.15621
999.562	17.29196
999.931	21.68156
1000.299	15.14526
1000.667	17.58484
1001.036	16.60942
1001.404	21.13806
1001.772	16.34062
1002.14	15.55064
1002.508	18.14494
1002.876	16.24606
1003.244	20.21592
1003.612	16.03078
1003.98	17.55456
1004.347	17.46962
1004.715	22.98991
1005.083	17.10145
1005.45	17.85095
1005.818	12.46996
1006.185	15.59163
1006.552	18.27652
1006.92	16.69563
1007.287	15.95665
1007.654	17.18664
1008.021	12.64805
1008.388	16.25858
1008.755	21.09183
1009.122	15.20626
1009.489	13.79448
1009.856	21.27461
1010.222	18.37799
1010.589	16.44092
1010.956	18.06605
1011.322	19.48062
1011.689	16.36601
1012.055	15.76153
1012.421	17.33266
1012.788	11.08416
1013.154	18.9722
1013.52	17.66799
1013.886	11.702
1014.252	13.53666
1014.618	16.64716
1014.984	12.72838
1015.35	16.27132
1015.716	16.42721
1016.081	14.46145
1016.447	15.67043
1016.813	15.21066
1017.178	15.37684
1017.544	15.47684
1017.909	20.72006
1018.274	17.10575
1018.64	14.12487
1019.005	17.2188
1019.37	14.59937
1019.735	15.37492
1020.1	6.08932
1020.465	14.30607
1020.83	8.44679
1021.195	10.97985
1021.56	11.53167
1021.924	8.88539
1022.289	15.39258
1022.654	5.67378
1023.018	11.86418
1023.383	4.05374
1023.747	6.37637
1024.111	7.37996
1024.476	12.21087
1024.84	17.07778
1025.204	8.88417
1025.568	1.29735
1025.932	11.50591
1026.296	6.72239
1026.66	8.58144
1027.024	9.99135
1027.387	5.30995
1027.751	7.16791
1028.115	12.78291
1028.478	-3.06446
1028.842	-1.1618
1029.205	11.57227
1029.569	9.69649
1029.932	7.23735
1030.295	6.33307
1030.659	13.66942
1031.022	1.80744
1031.385	1.5026
1031.748	2.86852
1032.111	-2.87736
1032.474	5.8781
1032.836	1.16881
1033.199	5.23062
1033.562	-17.39052
1033.924	12.06554
1034.287	6.15302
1034.65	-3.57965
1035.012	10.02055
1035.374	-9.42148
1035.737	-3.91912
1036.099	1.24533
1036.461	-9.17432
1036.823	-4.6553
1037.185	-3.74374
1037.547	-0.93984
1037.909	0.95483
1038.271	-3.80398
1038.633	-9.78416
1038.995	2.32424
1039.356	-2.757
1039.718	-5.53194
1040.08	8.53661
1040.441	-2.66018
1040.803	6.78915
1041.164	13.30304
1041.525	4.45871
1041.886	-8.04151
1042.248	-10.1506
1042.609	5.26017
1042.97	-8.81967
1043.331	3.47892
1043.692	-0.37155
1044.053	-9.61106
1044.413	-10.95366
1044.774	13.82804
1045.135	-2.33544
1045.495	-23.96899
1045.856	-12.21735
1046.216	-33.53035
1046.577	8.06179
1046.937	8.36661
1047.298	-1.20442
