Data from 1014water-6_Reflection__14__23-50-49-555.txt Node

Date: Tue Oct 14 23:50:49 AST 2025
User: lin
Spectrometer: SR600411
Trigger mode: 0
Integration Time (sec): 5.910000E-2
Scans to average: 5
Nonlinearity correction enabled: true
Boxcar width: 0
Storing dark spectrum: false
XAxis mode: Wavelengths
Number of Pixels in Spectrum: 2048
>>>>>Begin Spectral Data<<<<<
187.982	41.47373
188.456	29.61851
188.93	36.45892
189.403	50.62144
189.877	43.6096
190.351	37.08249
190.825	9.91308
191.298	28.0611
191.772	22.07007
192.246	25.94426
192.719	22.93524
193.193	44.84935
193.666	23.06917
194.139	31.32057
194.613	36.53477
195.086	25.83853
195.559	35.9338
196.033	46.44559
196.506	43.897
196.979	51.38696
197.452	44.76455
197.925	43.69809
198.398	48.32671
198.871	40.48578
199.344	46.67999
199.816	33.69609
200.289	41.84806
200.762	23.49461
201.235	29.00875
201.707	25.7422
202.18	14.83484
202.652	13.98262
203.125	8.80251
203.597	58.00897
204.07	11.59141
204.542	-0.96134
205.014	20.58384
205.486	22.53032
205.959	29.9298
206.431	-41.49714
206.903	7.14139
207.375	11.19755
207.847	31.75742
208.319	24.80712
208.791	-15.47323
209.263	44.17977
209.734	3.8452
210.206	-53.41284
210.678	4.34669
211.15	10.99807
211.621	1.13617
212.093	4.57902
212.564	-88.6892
213.036	6.12133
213.507	6.97509
213.979	-0.92573
214.45	1.1234
214.921	13.22039
215.392	-14.40294
215.864	-29.34093
216.335	-23.59038
216.806	3.02992
217.277	1.07507
217.748	-3.37017
218.219	3.88274
218.69	-48.97253
219.161	-25.96905
219.631	-43.51892
220.102	25.30259
220.573	-42.67306
221.043	4.25456
221.514	-5.88089
221.985	-70.99794
222.455	-4.06401
222.926	-11.53648
223.396	-38.19296
223.866	-31.70054
224.337	-23.41708
224.807	-18.38706
225.277	-22.78045
225.747	-25.26903
226.217	-2.5856
226.687	-19.04385
227.157	36.62903
227.627	-17.38667
228.097	-41.76291
228.567	-51.38539
229.037	-22.91133
229.507	-1.97979
229.977	17.38869
230.446	1.99981
230.916	-1.72374
231.386	-36.46224
231.855	-75.45784
232.325	-23.72539
232.794	-48.76874
233.263	10.09923
233.733	10.76676
234.202	3.84558
234.671	8.0447
235.14	-68.99772
235.61	-25.36892
236.079	-40.89906
236.548	-62.10808
237.017	5.49357
237.486	-30.64026
237.955	-36.20124
238.424	26.97922
238.892	-48.04111
239.361	-23.9395
239.83	-10.46315
240.299	-10.6529
240.767	-142.82836
241.236	-12.64123
241.704	-56.56565
242.173	-15.78673
242.641	-27.2682
243.109	9.24172
243.578	-18.45873
244.046	-81.23139
244.514	-27.39223
244.982	-50.75939
245.451	-88.4444
245.919	8.10647
246.387	-69.62977
246.855	-27.05305
247.323	-43.0128
247.791	12.84163
248.258	-23.65054
248.726	-23.32992
249.194	-93.62823
249.662	-12.30592
250.129	-19.76342
250.597	-49.98903
251.064	-34.87572
251.532	-22.21836
251.999	-81.6183
252.467	-49.28547
252.934	-51.60331
253.401	-86.27825
253.869	-46.2393
254.336	-10.7505
254.803	-56.1305
255.27	-10.63611
255.737	-32.34718
256.204	-29.57209
256.671	-47.6103
257.138	-9.08918
257.605	-17.9979
258.072	-39.18122
258.539	-49.26533
259.005	2.49961
259.472	-11.59244
259.939	-16.17394
260.405	-64.57325
260.872	-14.28323
261.338	-158.78208
261.805	27.67414
262.271	-68.07448
262.737	-6.66519
263.203	-11.40065
263.67	-85.98419
264.136	-11.92373
264.602	-30.58153
265.068	-114.98046
265.534	-29.16309
266	-67.43226
266.466	-53.01972
266.932	-164.24967
267.398	-63.06371
267.864	-58.89061
268.329	-31.74082
268.795	-237.885
269.261	-34.77622
269.726	-59.98767
270.192	-48.73852
270.657	-46.02337
271.123	-18.44216
271.588	-12.24357
272.053	-35.79467
272.519	-23.18451
272.984	-70.67583
273.449	-7.14243
273.914	-39.12054
274.379	-13.7904
274.844	-19.17478
275.309	-41.42046
275.774	-63.82007
276.239	-0.70902
276.704	-26.58949
277.169	-73.88968
277.634	14.4558
278.098	-24.71368
278.563	-107.82052
279.028	-12.93872
279.492	-75.54376
279.957	-42.61562
280.421	-39.5302
280.886	0
281.35	-9.41003
281.814	-10.08142
282.279	-35.3581
282.743	16.82889
283.207	-127.00596
283.671	-1.49234
284.135	-47.21232
284.599	-64.98728
285.063	-75.3939
285.527	-89.683
285.991	-30.43117
286.455	-117.82871
286.919	-211.50461
287.382	0
287.846	-43.5801
288.31	10.63653
288.773	-49.99496
289.237	-49.99051
289.7	-40.29102
290.164	-17.80519
290.627	-58.61003
291.09	-13.74753
291.554	-64.39444
292.017	-203.81438
292.48	0
292.943	-73.32202
293.406	-38.45607
293.869	5.82413
294.332	-99.98063
294.795	15.8515
295.258	-13.43082
295.721	-85.40165
296.184	-70.57609
296.646	-27.86456
297.109	-23.70572
297.572	-549.90105
298.034	-34.65974
298.497	-93.6002
298.959	-1599.83872
299.422	0
299.884	-51.15622
300.346	-115.97525
300.809	-108.09167
301.271	-12.81828
301.733	-42.45702
302.195	-26.78196
302.657	-1.04147
303.119	-53.23433
303.581	-248.10209
304.043	-23.60695
304.505	2.01981
304.967	-73.05744
305.429	-3.88267
305.891	-27.93637
306.352	-61.2782
306.814	13.57837
307.275	20.28765
307.737	-22.36431
308.198	37.65876
308.66	-43.93115
309.121	-17.56455
309.583	-92.294
310.044	-106.88387
310.505	-3.47744
310.966	-55.92203
311.428	-56.13047
311.889	-26.1496
312.35	-13.69639
312.811	-163.61761
313.272	-110.23857
313.733	-6.31453
314.193	1029.62798
314.654	-36.91659
315.115	-89.73046
315.576	-140.7835
316.036	-52.29747
316.497	-218.15165
316.957	-657.07403
317.418	-45.45167
317.878	-48.97253
318.339	-25.71205
318.799	-13.41217
319.259	-10.71232
319.72	-28.74415
320.18	-15.25219
320.64	-146.64523
321.1	-20.36775
321.56	-67.22849
322.02	-112.22181
322.48	-3.37017
322.94	-65.37906
323.4	-67.98871
323.86	-46.41728
324.319	-545.37805
324.779	-43.17106
325.239	10.14368
325.698	0
326.158	-57.4384
326.617	-45.60657
327.077	-52.37432
327.536	-113.61526
327.996	-8.85925
328.455	-56.23611
328.914	-62.25356
329.373	-45.44592
329.832	-56.96153
330.292	-26.87545
330.751	-64.69158
331.21	-194.95456
331.668	-39.57286
332.127	3.6356
332.586	-83.61967
333.045	16.30186
333.504	-104.23556
333.962	-83.56178
334.421	-39.99834
334.88	-119.12471
335.338	-54.15875
335.797	-21.91395
336.255	-49.1972
336.714	-36.07306
337.172	10.25428
337.63	-51.01294
338.088	-16.66252
338.547	-14.28368
339.005	-54.20315
339.463	0.92573
339.921	19.40092
340.379	-95.90016
340.837	-67.93112
341.295	-59.6384
341.753	-27.26896
342.21	-87.25496
342.668	-33.32832
343.126	-55.70229
343.584	12.04646
344.041	-7.86368
344.499	-39.73504
344.956	39.62013
345.414	-15.31145
345.871	-168.84854
346.328	-53.01973
346.786	-96.40761
347.243	-63.98963
347.7	-65.06601
348.157	-103.68118
348.614	4.28515
349.071	-17.56455
349.528	-1999.75079
349.985	19.66833
350.442	-43.06901
350.899	-68.10033
351.356	-58.65287
351.812	-51.59853
352.269	-22.21691
352.726	-39.99558
353.182	-71.40655
353.639	2.38057
354.095	3.89553
354.552	-13.23328
355.008	-66.08891
355.465	8.69457
355.921	-24.99456
356.377	3.33276
356.833	18.30776
357.289	-27.70504
357.745	0
358.201	-24.99556
358.657	-16.15794
359.113	-2.99939
359.569	11.57703
360.025	-1.36014
360.481	23.14436
360.937	-10.71232
361.392	32.63263
361.848	0.7998
362.303	-18.93352
362.759	4.58621
363.214	37.15772
363.67	17.70281
364.125	20.8073
364.581	40.67188
365.036	31.41816
365.491	31.124
365.946	27.46179
366.401	35.18369
366.856	49.69234
367.311	23.30141
367.766	46.96017
368.221	30.87882
368.676	42.29645
369.131	39.32421
369.586	48.67305
370.041	49.13562
370.495	44.45563
370.95	55.28145
371.404	48.3719
371.859	46.54082
372.313	51.13466
372.768	47.96297
373.222	51.9356
373.676	51.9804
374.131	50.92182
374.585	50.09439
375.039	51.82773
375.493	51.13046
375.947	56.17403
376.401	54.12492
376.855	52.41184
377.309	55.62717
377.763	51.81431
378.217	52.29388
378.67	52.08732
379.124	53.58838
379.578	52.36982
380.031	55.27351
380.485	54.51668
380.938	57.06898
381.392	55.04274
381.845	53.89716
382.299	56.26279
382.752	55.71376
383.205	54.61863
383.658	54.85066
384.111	56.29902
384.564	55.42706
385.018	56.10514
385.471	55.26019
385.923	54.76023
386.376	55.89376
386.829	55.18729
387.282	57.47458
387.735	56.8233
388.187	57.67812
388.64	57.67679
389.093	58.14091
389.545	57.25262
389.998	57.10469
390.45	57.17147
390.902	56.60479
391.355	56.97445
391.807	58.80168
392.259	57.82913
392.711	58.16929
393.163	57.90532
393.615	57.47709
394.068	58.23488
394.519	58.51362
394.971	57.52505
395.423	57.79841
395.875	58.25306
396.327	57.31461
396.779	58.37678
397.23	56.6315
397.682	58.28117
398.133	57.30017
398.585	57.48845
399.036	57.13182
399.488	57.7356
399.939	58.11125
400.39	56.94803
400.842	57.05728
401.293	57.10489
401.744	57.29375
402.195	56.9492
402.646	56.63121
403.097	57.12956
403.548	57.56859
403.999	57.19752
404.45	56.72158
404.9	56.32877
405.351	56.84486
405.802	56.44727
406.253	56.73911
406.703	56.05224
407.154	56.70554
407.604	56.39765
408.055	55.62601
408.505	56.35867
408.955	56.03194
409.406	55.73501
409.856	55.19985
410.306	54.94795
410.756	54.48047
411.206	54.91211
411.656	54.14197
412.106	54.90839
412.556	53.79896
413.006	54.09968
413.456	53.21732
413.905	53.75934
414.355	53.81914
414.805	53.77145
415.254	53.52225
415.704	53.10132
416.153	52.57423
416.603	53.69522
417.052	52.83934
417.502	52.51774
417.951	52.1263
418.4	52.25861
418.849	51.85422
419.298	52.34133
419.748	52.1702
420.197	52.28638
420.646	51.547
421.094	51.49833
421.543	51.08207
421.992	51.43162
422.441	51.27896
422.89	51.06934
423.338	50.91996
423.787	51.06404
424.236	50.12332
424.684	49.95496
425.133	50.41546
425.581	49.98005
426.029	49.61841
426.478	49.69144
426.926	49.6518
427.374	49.68818
427.822	49.26266
428.27	49.1095
428.718	49.16568
429.166	48.82202
429.614	49.10287
430.062	48.89811
430.51	48.57842
430.958	48.24067
431.406	49.08066
431.853	48.53599
432.301	48.71404
432.749	48.4469
433.196	48.13545
433.644	48.55252
434.091	48.19711
434.538	47.85903
434.986	47.95087
435.433	47.22628
435.88	47.34008
436.327	47.2577
436.775	47.64764
437.222	47.52736
437.669	47.36787
438.116	47.41651
438.563	47.33965
439.009	47.59282
439.456	47.05723
439.903	46.99148
440.35	46.8246
440.796	46.87258
441.243	47.07463
441.689	47.30906
442.136	47.11142
442.582	46.95428
443.029	47.30998
443.475	47.14194
443.921	46.99176
444.368	47.38787
444.814	47.23614
445.26	47.27717
445.706	47.39464
446.152	46.87164
446.598	47.18101
447.044	47.10531
447.49	47.69122
447.936	47.14365
448.381	46.94638
448.827	47.15467
449.273	47.15241
449.718	47.1142
450.164	47.04541
450.61	46.97541
451.055	47.05316
451.5	47.1638
451.946	47.56226
452.391	47.55517
452.836	47.73269
453.282	47.31715
453.727	47.56378
454.172	47.25105
454.617	47.36389
455.062	47.40635
455.507	47.32716
455.952	47.41484
456.396	47.51796
456.841	47.63771
457.286	47.773
457.731	47.77786
458.175	47.7839
458.62	48.10113
459.064	47.80875
459.509	47.76756
459.953	47.96041
460.398	48.20462
460.842	48.45872
461.286	48.61285
461.73	48.35513
462.174	48.73755
462.619	48.56633
463.063	48.44418
463.507	48.73097
463.951	48.89583
464.394	49.23079
464.838	49.04791
465.282	48.7541
465.726	49.57443
466.17	49.75068
466.613	50.21577
467.057	50.38145
467.5	50.16683
467.944	50.42955
468.387	51.04591
468.831	51.29196
469.274	51.39386
469.717	51.70678
470.16	51.85002
470.603	52.14595
471.047	52.10148
471.49	52.4648
471.933	52.44206
472.376	52.7362
472.818	52.81485
473.261	53.21583
473.704	53.05937
474.147	53.66842
474.59	53.81513
475.032	53.64317
475.475	53.81011
475.917	54.05236
476.36	54.72821
476.802	54.83101
477.245	55.34695
477.687	55.46659
478.129	55.29258
478.571	55.84581
479.013	55.57592
479.456	55.48293
479.898	55.8781
480.34	56.49261
480.782	56.59909
481.224	56.75945
481.665	57.0363
482.107	57.31653
482.549	57.21996
482.991	57.48616
483.432	57.618
483.874	57.99634
484.315	57.753
484.757	58.01414
485.198	57.63658
485.64	58.47569
486.081	58.32367
486.522	58.56228
486.963	58.96917
487.405	58.65785
487.846	59.13051
488.287	58.79035
488.728	59.2105
489.169	59.52148
489.61	59.62389
490.05	59.64309
490.491	59.94693
490.932	59.75218
491.373	59.87826
491.813	60.00186
492.254	59.63281
492.694	59.92265
493.135	60.39716
493.575	60.33641
494.016	60.26526
494.456	60.27682
494.896	60.86639
495.336	60.79664
495.777	60.73327
496.217	61.13324
496.657	61.49251
497.097	61.08079
497.537	61.68441
497.977	61.68095
498.416	61.13116
498.856	62.18555
499.296	61.81024
499.736	62.39988
500.175	61.69833
500.615	62.29027
501.054	62.15407
501.494	62.43556
501.933	62.96649
502.373	62.36157
502.812	63.63451
503.251	63.48138
503.69	63.70497
504.129	64.42603
504.569	64.36334
505.008	63.93468
505.447	64.36533
505.886	65.01068
506.324	65.12583
506.763	65.94437
507.202	65.24587
507.641	65.8267
508.079	65.67766
508.518	66.2986
508.957	66.40645
509.395	66.4027
509.834	67.00765
510.272	67.41012
510.71	67.01719
511.149	67.51871
511.587	67.59938
512.025	67.85467
512.463	68.18662
512.901	68.47039
513.339	68.76859
513.777	68.50192
514.215	69.27877
514.653	70.07715
515.091	70.13093
515.529	69.80499
515.966	70.65494
516.404	71.02968
516.842	71.15469
517.279	71.55419
517.717	71.22039
518.154	71.76269
518.592	71.77798
519.029	72.30726
519.466	72.65534
519.904	72.56628
520.341	73.14051
520.778	73.32633
521.215	73.45361
521.652	73.65359
522.089	73.66028
522.526	73.92088
522.963	74.33518
523.399	74.21977
523.836	74.69354
524.273	75.11343
524.71	74.92231
525.146	75.66244
525.583	76.50121
526.019	76.01889
526.456	76.33458
526.892	76.9422
527.328	76.78111
527.765	76.67701
528.201	76.93869
528.637	77.0376
529.073	77.70644
529.509	78.06532
529.945	77.85305
530.381	77.76092
530.817	78.98409
531.253	78.67271
531.689	79.02639
532.124	79.07757
532.56	79.6648
532.996	79.47615
533.431	79.54882
533.867	80.90803
534.302	80.14777
534.738	80.12979
535.173	80.51716
535.608	80.87755
536.044	80.52267
536.479	81.44226
536.914	81.50321
537.349	81.54468
537.784	81.49721
538.219	81.64533
538.654	81.41344
539.089	81.72068
539.524	81.87583
539.959	82.03449
540.393	81.44345
540.828	82.19713
541.263	82.35075
541.697	82.56217
542.132	81.77555
542.566	82.74801
543.001	82.98488
543.435	82.95397
543.869	82.5746
544.303	82.81583
544.738	83.08273
545.172	82.59204
545.606	82.60502
546.04	82.65584
546.474	82.28499
546.908	83.03169
547.342	82.93006
547.775	82.89555
548.209	82.45614
548.643	81.88626
549.077	81.86733
549.51	82.5224
549.944	82.26148
550.377	81.69403
550.811	82.35297
551.244	81.60964
551.677	81.36679
552.111	81.33912
552.544	80.6817
552.977	81.06349
553.41	81.06947
553.843	80.46691
554.276	80.74984
554.709	81.12347
555.142	80.40684
555.575	80.22512
556.008	80.28407
556.44	79.98549
556.873	79.93913
557.306	79.45138
557.738	79.37068
558.171	78.26153
558.603	78.66296
559.036	78.37268
559.468	78.41802
559.9	77.69794
560.333	77.20492
560.765	77.57736
561.197	77.70414
561.629	76.88598
562.061	76.80332
562.493	76.17086
562.925	76.05335
563.357	75.76244
563.789	75.84924
564.22	75.55109
564.652	74.77491
565.084	75.67619
565.515	74.5769
565.947	73.76521
566.378	73.97602
566.81	73.43811
567.241	73.32905
567.672	72.6348
568.104	72.23982
568.535	71.90254
568.966	72.42018
569.397	72.13451
569.828	71.88236
570.259	71.88903
570.69	71.00907
571.121	70.64331
571.552	70.80486
571.983	70.13517
572.414	69.8949
572.844	69.64943
573.275	69.00607
573.705	69.30404
574.136	68.87212
574.566	68.94212
574.997	68.26216
575.427	67.98924
575.857	67.39841
576.288	67.53802
576.718	67.59584
577.148	66.67944
577.578	66.80811
578.008	66.35273
578.438	65.93134
578.868	65.5357
579.298	65.45073
579.728	65.41066
580.157	64.70283
580.587	64.35089
581.017	64.33821
581.446	63.32971
581.876	63.2629
582.305	62.90031
582.735	62.655
583.164	62.59087
583.593	62.19034
584.023	61.72562
584.452	61.61092
584.881	61.66316
585.31	61.17389
585.739	61.41905
586.168	61.40527
586.597	60.87479
587.026	60.5863
587.455	60.87045
587.884	59.7488
588.312	60.44195
588.741	59.79015
589.17	59.54159
589.598	58.98996
590.027	58.99382
590.455	58.44848
590.884	58.02656
591.312	57.89299
591.74	57.52929
592.168	57.502
592.597	57.25754
593.025	56.65412
593.453	56.39251
593.881	56.73529
594.309	55.88686
594.737	55.50279
595.165	55.40588
595.592	55.02276
596.02	55.13469
596.448	55.01113
596.875	54.56077
597.303	54.5867
597.73	54.0855
598.158	54.58872
598.585	53.98558
599.013	53.70243
599.44	53.37176
599.867	53.38307
600.294	53.21873
600.722	52.94054
601.149	52.986
601.576	52.9341
602.003	52.99825
602.43	52.51385
602.856	52.44833
603.283	52.30593
603.71	51.57527
604.137	51.57838
604.563	51.68178
604.99	51.29236
605.416	50.76557
605.843	50.693
606.269	50.35006
606.696	50.0964
607.122	50.55874
607.548	50.61585
607.975	49.76191
608.401	50.12541
608.827	49.85558
609.253	49.77982
609.679	49.53719
610.105	50.12648
610.531	49.08663
610.956	49.2402
611.382	48.6849
611.808	48.71573
612.234	48.66151
612.659	48.70585
613.085	48.56382
613.51	48.41966
613.936	48.29757
614.361	48.62314
614.786	48.38989
615.212	47.8365
615.637	48.03667
616.062	48.00244
616.487	48.34705
616.912	48.00575
617.337	47.5396
617.762	47.8267
618.187	47.2689
618.612	47.19869
619.037	47.33496
619.461	47.42607
619.886	46.90127
620.311	47.22122
620.735	47.15269
621.16	47.07813
621.584	46.98438
622.008	47.04393
622.433	47.38195
622.857	47.06479
623.281	47.09578
623.705	47.00145
624.13	46.531
624.554	46.65798
624.978	47.08105
625.402	46.82616
625.826	46.54112
626.249	46.77375
626.673	46.87732
627.097	46.72608
627.521	46.62621
627.944	46.63607
628.368	47.06723
628.791	46.93932
629.215	46.61968
629.638	47.33034
630.061	47.21674
630.485	47.25931
630.908	47.84489
631.331	47.05679
631.754	47.4282
632.177	47.42307
632.6	47.22972
633.023	46.98062
633.446	47.57932
633.869	47.48736
634.292	47.15974
634.715	48.02728
635.137	48.05786
635.56	47.71982
635.982	47.79888
636.405	48.09982
636.827	48.08549
637.25	48.44943
637.672	48.30845
638.094	48.77088
638.517	48.9112
638.939	48.8312
639.361	48.94314
639.783	49.30362
640.205	48.9923
640.627	49.32057
641.049	49.91549
641.471	49.43445
641.893	49.74228
642.314	50.11135
642.736	50.26924
643.158	50.1658
643.579	50.30325
644.001	50.38002
644.422	50.6185
644.844	51.06938
645.265	51.13242
645.686	50.9904
646.107	51.60201
646.529	51.1724
646.95	51.63988
647.371	51.7142
647.792	52.06229
648.213	52.27025
648.634	52.43973
649.055	52.17685
649.475	53.2707
649.896	53.14244
650.317	52.97458
650.737	53.50562
651.158	54.26853
651.578	54.41991
651.999	54.92622
652.419	54.33567
652.84	54.44066
653.26	54.92064
653.68	55.12914
654.1	54.94453
654.521	54.78551
654.941	55.06445
655.361	56.31145
655.781	55.88145
656.2	56.48511
656.62	56.60079
657.04	57.49258
657.46	57.04225
657.879	57.46352
658.299	57.31206
658.719	57.671
659.138	57.87535
659.558	58.18573
659.977	58.27069
660.396	58.2709
660.816	58.54172
661.235	58.70697
661.654	59.04825
662.073	59.57482
662.492	59.36817
662.911	59.95479
663.33	60.36248
663.749	60.41808
664.168	60.6264
664.587	60.38357
665.006	60.69586
665.424	61.07641
665.843	60.95556
666.261	61.18523
666.68	61.10437
667.098	61.9638
667.517	61.52383
667.935	62.08604
668.353	62.53924
668.772	62.38553
669.19	62.30176
669.608	62.7216
670.026	62.8717
670.444	63.02318
670.862	62.80236
671.28	63.07544
671.698	62.87919
672.115	63.91919
672.533	63.73562
672.951	63.57963
673.368	63.67718
673.786	63.73503
674.203	63.4854
674.621	64.08987
675.038	63.60315
675.456	64.07801
675.873	63.26936
676.29	63.51653
676.707	63.91722
677.124	63.36975
677.541	63.9562
677.958	63.38198
678.375	64.19568
678.792	63.44052
679.209	62.94888
679.626	64.26396
680.043	63.77535
680.459	64.26111
680.876	64.12558
681.292	64.4601
681.709	64.34146
682.125	64.00599
682.542	64.1984
682.958	63.57956
683.374	64.0185
683.79	63.63768
684.207	64.21819
684.623	63.98308
685.039	64.22191
685.455	64.04773
685.871	63.37954
686.286	63.18479
686.702	62.83648
687.118	63.40651
687.534	62.89133
687.949	63.00135
688.365	62.73591
688.781	62.71141
689.196	62.80612
689.611	62.20288
690.027	61.96512
690.442	61.66979
690.857	61.47605
691.273	61.50455
691.688	61.18532
692.103	61.28826
692.518	60.94105
692.933	60.74167
693.348	60.36541
693.763	60.59268
694.177	60.08228
694.592	60.22274
695.007	59.81164
695.421	59.21403
695.836	59.6502
696.25	58.93006
696.665	59.19715
697.079	58.01628
697.494	58.68767
697.908	58.15833
698.322	58.39027
698.736	57.74074
699.151	57.2325
699.565	57.35911
699.979	56.98027
700.393	56.73681
700.806	56.38771
701.22	56.4262
701.634	55.69293
702.048	56.30381
702.461	54.55531
702.875	55.6686
703.289	54.52212
703.702	54.98289
704.116	54.30304
704.529	54.32444
704.942	54.05534
705.356	53.70624
705.769	53.63028
706.182	52.95981
706.595	52.75685
707.008	52.14856
707.421	52.7634
707.834	51.52912
708.247	51.7079
708.66	50.54044
709.072	51.38226
709.485	50.61391
709.898	50.96134
710.31	49.79516
710.723	50.51199
711.135	49.38383
711.548	49.38401
711.96	48.88557
712.373	48.9345
712.785	48.63069
713.197	48.48497
713.609	47.69976
714.021	47.74938
714.433	47.03058
714.845	46.96457
715.257	46.53454
715.669	46.54753
716.081	46.00179
716.493	45.28996
716.904	45.38751
717.316	44.89952
717.727	44.68064
718.139	44.43429
718.55	44.13057
718.962	43.35359
719.373	43.75088
719.784	43.05299
720.196	43.35331
720.607	43.05516
721.018	42.83608
721.429	41.51123
721.84	42.00632
722.251	41.07289
722.662	41.54946
723.073	40.77491
723.483	40.87259
723.894	40.02074
724.305	40.17071
724.715	39.18871
725.126	39.74786
725.536	38.88526
725.947	39.09354
726.357	38.39684
726.768	38.56476
727.178	38.36953
727.588	37.87857
727.998	37.45692
728.408	37.52009
728.818	36.92937
729.228	37.09741
729.638	36.3052
730.048	36.44037
730.458	36.09281
730.868	35.97522
731.277	35.51777
731.687	35.79115
732.097	35.46395
732.506	35.46086
732.916	35.47868
733.325	34.96163
733.734	34.42771
734.144	34.21854
734.553	34.2872
734.962	33.72938
735.371	34.09952
735.78	33.33413
736.189	33.60621
736.598	32.90921
737.007	33.2352
737.416	32.41138
737.825	33.19623
738.233	31.90159
738.642	32.574
739.051	31.89815
739.459	32.45182
739.868	31.50507
740.276	32.00037
740.684	31.59049
741.093	31.98401
741.501	31.21674
741.909	31.2954
742.317	31.00204
742.725	30.90538
743.133	30.7171
743.541	30.25881
743.949	30.83558
744.357	30.22602
744.765	30.54728
745.173	29.849
745.58	30.66031
745.988	29.09856
746.396	29.89492
746.803	29.10643
747.211	29.85952
747.618	29.19758
748.025	29.44264
748.433	29.10447
748.84	28.62851
749.247	28.79862
749.654	28.25955
750.061	28.30311
750.468	28.25753
750.875	28.56417
751.282	27.6957
751.689	28.36613
752.096	27.68601
752.502	28.16838
752.909	27.30838
753.316	28.00045
753.722	28.00848
754.129	27.65662
754.535	27.68211
754.941	27.54941
755.348	28.22862
755.754	27.2239
756.16	27.96593
756.566	26.98619
756.972	27.74492
757.378	27.09934
757.784	27.38815
758.19	27.03146
758.596	27.10892
759.002	27.33905
759.408	26.98281
759.813	27.54379
760.219	26.82109
760.624	27.38599
761.03	26.58281
761.435	26.44015
761.841	25.93876
762.246	26.14326
762.651	26.14358
763.057	26.1478
763.462	27.05065
763.867	26.45903
764.272	27.3071
764.677	26.82391
765.082	26.99671
765.487	26.81631
765.892	26.4576
766.296	26.54007
766.701	26.14825
767.106	26.89249
767.51	25.9529
767.915	26.9443
768.319	25.65044
768.724	26.24751
769.128	25.98316
769.532	25.24272
769.936	26.52201
770.341	25.45946
770.745	26.0871
771.149	25.58824
771.553	25.60026
771.957	25.58746
772.361	25.69701
772.764	26.08912
773.168	25.15087
773.572	25.9773
773.976	25.18763
774.379	25.81345
774.783	25.13307
775.186	25.82214
775.59	24.98405
775.993	24.95442
776.396	25.66001
776.8	25.13176
777.203	25.64932
777.606	25.26013
778.009	25.77681
778.412	25.18887
778.815	24.9192
779.218	25.7418
779.621	25.08299
780.023	25.78124
780.426	25.62053
780.829	25.46112
781.231	25.39858
781.634	25.24539
782.036	26.09892
782.439	25.43007
782.841	25.38875
783.244	25.41824
783.646	25.0249
784.048	25.92822
784.45	25.00466
784.852	25.881
785.254	25.5991
785.656	25.27893
786.058	26.04262
786.46	24.96168
786.862	24.99622
787.264	25.13397
787.665	25.37507
788.067	25.24344
788.468	25.15819
788.87	25.36145
789.271	24.68392
789.673	25.63351
790.074	25.12446
790.475	25.37669
790.877	25.79782
791.278	25.35646
791.679	25.61667
792.08	25.06728
792.481	25.12004
792.882	25.6672
793.283	25.44049
793.683	25.59313
794.084	25.1232
794.485	24.96359
794.886	24.86542
795.286	25.14733
795.687	25.71233
796.087	24.72161
796.487	25.25474
796.888	25.1817
797.288	25.09611
797.688	25.60806
798.088	24.72106
798.489	25.14125
798.889	25.21124
799.289	25.04942
799.689	25.63652
800.088	25.02444
800.488	25.36246
800.888	25.59571
801.288	25.31678
801.687	26.05401
802.087	25.19131
802.486	25.50055
802.886	25.65261
803.285	24.98399
803.685	26.24469
804.084	25.46766
804.483	25.76099
804.882	25.58879
805.281	25.27543
805.68	25.92332
806.079	25.95958
806.478	25.8032
806.877	26.03082
807.276	25.14487
807.675	26.05108
808.074	25.77307
808.472	25.27033
808.871	26.07867
809.269	25.33395
809.668	26.09526
810.066	25.80225
810.465	25.75813
810.863	26.16751
811.261	25.70882
811.659	26.01618
812.057	26.12497
812.455	26.06253
812.853	26.01278
813.251	25.12353
813.649	26.01842
814.047	25.75247
814.445	25.09749
814.843	26.44157
815.24	25.76619
815.638	25.81511
816.035	26.29501
816.433	25.75946
816.83	26.2181
817.228	26.32999
817.625	25.98386
818.022	26.74822
818.419	25.87285
818.816	25.83803
819.213	26.23323
819.61	25.70287
820.007	26.50562
820.404	26.301
820.801	26.4437
821.198	27.25741
821.595	26.6548
821.991	26.89234
822.388	27.66877
822.784	27.25074
823.181	28.03833
823.577	27.89986
823.974	27.95553
824.37	28.08418
824.766	27.65872
825.162	27.55947
825.558	27.59053
825.954	26.87547
826.35	27.75298
826.746	28.00626
827.142	27.4793
827.538	28.15032
827.934	28.05638
828.33	27.80841
828.725	27.60465
829.121	27.30776
829.516	27.21043
829.912	27.47726
830.307	27.11832
830.703	27.25674
831.098	26.97371
831.493	26.76349
831.888	26.82569
832.283	26.55795
832.678	26.62994
833.073	27.47121
833.468	26.86802
833.863	27.48077
834.258	28.00552
834.653	27.27997
835.048	27.87404
835.442	27.974
835.837	27.72437
836.231	27.67853
836.626	27.12067
837.02	27.26958
837.415	27.89255
837.809	26.95385
838.203	27.44748
838.597	27.50273
838.991	26.44316
839.385	27.03441
839.779	27.58635
840.173	26.89822
840.567	27.127
840.961	27.16423
841.355	27.29747
841.748	27.58265
842.142	27.50956
842.536	27.82742
842.929	27.77721
843.323	27.51462
843.716	27.42492
844.109	27.56998
844.503	27.18765
844.896	27.96717
845.289	27.34971
845.682	27.747
846.075	28.43912
846.468	27.21269
846.861	27.00269
847.254	27.71075
847.647	27.26311
848.04	26.91928
848.432	27.93568
848.825	27.68481
849.217	27.14276
849.61	28.41177
850.002	27.9755
850.395	27.62096
850.787	27.86424
851.179	26.89062
851.572	27.98093
851.964	28.2875
852.356	27.34001
852.748	27.15169
853.14	28.06253
853.532	27.32632
853.924	27.90634
854.315	27.95425
854.707	27.31381
855.099	26.98051
855.491	27.1153
855.882	26.89136
856.274	28.29321
856.665	27.49794
857.056	26.63419
857.448	27.63544
857.839	27.69565
858.23	27.04943
858.621	28.0886
859.012	27.087
859.403	27.21761
859.794	28.74919
860.185	28.10859
860.576	27.93631
860.967	27.41777
861.358	27.6874
861.748	28.00643
862.139	27.27322
862.529	27.36355
862.92	27.51766
863.31	28.63833
863.701	26.65041
864.091	27.0355
864.481	27.85148
864.872	27.78204
865.262	27.23136
865.652	27.7703
866.042	27.71943
866.432	26.87738
866.822	27.69857
867.211	26.77533
867.601	26.97621
867.991	27.71466
868.381	27.53453
868.77	27.01927
869.16	27.14581
869.549	27.06598
869.939	27.39277
870.328	27.98195
870.717	27.15645
871.106	27.64516
871.496	27.81172
871.885	27.44342
872.274	27.18111
872.663	28.1461
873.052	27.94902
873.441	27.26508
873.829	27.32164
874.218	27.24632
874.607	26.89399
874.996	27.29714
875.384	27.29417
875.773	26.4564
876.161	26.95761
876.549	26.93472
876.938	26.45544
877.326	26.80525
877.714	27.63124
878.102	26.46749
878.491	26.93912
878.879	27.29481
879.267	26.36141
879.655	27.35191
880.042	27.6018
880.43	27.46721
880.818	27.51411
881.206	28.18431
881.593	27.85509
881.981	27.48849
882.368	28.16117
882.756	28.08827
883.143	28.05488
883.53	27.88521
883.918	27.8252
884.305	27.2954
884.692	27.94744
885.079	27.54378
885.466	27.11922
885.853	27.09317
886.24	27.12455
886.627	27.19232
887.014	27.54708
887.4	27.16094
887.787	26.91454
888.174	26.82232
888.56	27.6673
888.947	27.04008
889.333	26.9703
889.719	27.08041
890.106	27.30859
890.492	26.28859
890.878	26.87306
891.264	27.07556
891.65	26.48444
892.036	26.73498
892.422	26.79977
892.808	25.74642
893.194	25.97951
893.58	26.86652
893.965	26.30721
894.351	26.47617
894.736	26.92453
895.122	27.06237
895.507	26.52431
895.893	27.01513
896.278	26.74274
896.663	26.58481
897.049	27.11873
897.434	27.15797
897.819	26.69182
898.204	26.77219
898.589	26.97599
898.974	26.31417
899.359	26.60318
899.743	26.25302
900.128	27.33828
900.513	26.91875
900.897	27.18117
901.282	26.55109
901.667	26.14055
902.051	26.42053
902.435	27.12345
902.82	25.90967
903.204	25.98254
903.588	26.80092
903.972	26.72848
904.356	26.61962
904.74	26.93113
905.124	27.28319
905.508	26.3653
905.892	27.02591
906.276	27.07723
906.659	26.5473
907.043	26.79623
907.427	26.5834
907.81	26.7696
908.194	26.99583
908.577	26.89424
908.96	27.04763
909.344	26.59135
909.727	25.92865
910.11	26.58042
910.493	26.16011
910.876	25.98114
911.259	26.38587
911.642	26.44072
912.025	24.77895
912.408	25.63976
912.79	26.21935
913.173	26.01893
913.556	25.75203
913.938	26.41503
914.321	25.52018
914.703	25.43123
915.086	26.54906
915.468	26.78982
915.85	25.98529
916.232	26.17115
916.614	26.43918
916.996	26.26271
917.378	25.89223
917.76	26.15182
918.142	27.25609
918.524	26.00155
918.906	26.08391
919.288	26.27325
919.669	26.31434
920.051	26.56628
920.432	26.20801
920.814	26.4316
921.195	25.77042
921.577	25.45792
921.958	26.91884
922.339	26.98514
922.72	25.56546
923.101	26.25999
923.482	26.26896
923.863	25.85588
924.244	26.09424
924.625	25.77055
925.006	26.34501
925.387	25.53178
925.767	26.16168
926.148	26.0138
926.528	25.31259
926.909	25.16045
927.289	25.23004
927.67	25.9931
928.05	24.38506
928.43	25.43326
928.81	26.00579
929.191	24.40785
929.571	24.40205
929.951	25.8697
930.331	25.21061
930.71	25.40138
931.09	24.88017
931.47	26.43892
931.85	25.9952
932.229	24.87493
932.609	25.71122
932.988	25.76815
933.368	25.25169
933.747	25.43868
934.127	26.27841
934.506	26.07839
934.885	24.45917
935.264	25.08599
935.643	26.36532
936.022	24.4553
936.401	24.74157
936.78	24.89226
937.159	24.90269
937.538	24.29194
937.916	24.66989
938.295	25.1662
938.674	23.97402
939.052	24.56699
939.431	25.27695
939.809	23.55704
940.187	24.49144
940.566	24.17177
940.944	24.11849
941.322	24.9033
941.7	23.39734
942.078	23.33276
942.456	24.52777
942.834	24.48939
943.212	22.66853
943.59	24.13311
943.968	25.68341
944.345	23.39356
944.723	24.39117
945.1	22.95633
945.478	23.80873
945.855	22.7276
946.233	22.37167
946.61	23.04073
946.987	23.82258
947.365	23.06495
947.742	23.00971
948.119	23.492
948.496	24.00456
948.873	21.2706
949.25	23.53346
949.626	22.88856
950.003	22.15254
950.38	22.09432
950.756	23.1799
951.133	22.17704
951.51	22.85827
951.886	24.39326
952.262	23.43632
952.639	24.35845
953.015	21.92889
953.391	22.89975
953.767	22.57859
954.143	20.62632
954.519	24.10108
954.895	21.55888
955.271	23.71399
955.647	22.12109
956.023	21.88545
956.399	21.04872
956.774	21.44364
957.15	23.31351
957.525	21.09468
957.901	21.80458
958.276	20.51394
958.652	22.40339
959.027	23.58623
959.402	23.43338
959.777	21.50936
960.152	20.90049
960.527	21.55846
960.902	22.04683
961.277	23.65418
961.652	19.71706
962.027	21.50014
962.402	22.4362
962.776	22.22651
963.151	22.44629
963.525	23.48984
963.9	22.92521
964.274	20.81427
964.649	20.56891
965.023	18.76853
965.397	22.18042
965.771	21.50846
966.146	21.65884
966.52	22.39677
966.894	20.5971
967.268	22.65893
967.641	20.76814
968.015	22.13324
968.389	21.838
968.763	22.27457
969.136	20.06976
969.51	22.30807
969.883	21.09623
970.257	22.83033
970.63	21.36046
971.003	21.05477
971.377	23.20387
971.75	22.29545
972.123	23.33122
972.496	21.99441
972.869	22.13387
973.242	20.22725
973.615	20.73014
973.988	20.91599
974.36	22.60582
974.733	22.74302
975.106	20.02609
975.478	23.40118
975.851	21.72314
976.223	21.13827
976.596	20.65457
976.968	21.50057
977.34	22.7341
977.712	21.4207
978.085	20.83891
978.457	21.96202
978.829	22.12509
979.201	22.45525
979.573	22.26803
979.944	22.5007
980.316	21.45588
980.688	21.68533
981.059	21.53965
981.431	22.25684
981.803	20.60581
982.174	21.19089
982.545	20.48166
982.917	19.99885
983.288	21.34924
983.659	19.18799
984.03	19.9053
984.401	20.79771
984.772	20.87985
985.143	19.63437
985.514	19.11773
985.885	21.38208
986.256	21.41901
986.627	19.34196
986.997	21.36321
987.368	20.55809
987.738	21.54774
988.109	19.23384
988.479	22.40067
988.85	19.38695
989.22	20.39635
989.59	21.62619
989.96	19.69244
990.33	21.4197
990.7	22.23674
991.07	21.78297
991.44	19.61145
991.81	21.032
992.18	20.64801
992.549	21.34307
992.919	20.19562
993.289	19.99247
993.658	21.20312
994.028	22.0986
994.397	20.37387
994.766	21.71975
995.136	21.10949
995.505	20.19564
995.874	22.08663
996.243	20.92252
996.612	19.50767
996.981	20.63718
997.35	19.25081
997.719	21.31058
998.088	19.2512
998.456	21.29485
998.825	19.93751
999.194	21.63459
999.562	15.77331
999.931	21.07748
1000.299	15.61234
1000.667	17.11352
1001.036	17.9898
1001.404	21.13806
1001.772	20.05162
1002.14	18.44288
1002.508	17.01026
1002.876	17.72922
1003.244	17.00236
1003.612	17.94025
1003.98	13.49695
1004.347	18.42549
1004.715	19.51272
1005.083	16.3395
1005.45	17.64328
1005.818	14.71267
1006.185	14.17363
1006.552	19.79495
1006.92	16.83199
1007.287	16.50243
1007.654	13.55991
1008.021	18.19321
1008.388	17.53048
1008.755	16.36649
1009.122	14.66052
1009.489	16.72014
1009.856	18.05686
1010.222	13.3462
1010.589	17.22422
1010.956	17.46354
1011.322	22.3029
1011.689	18.95869
1012.055	15.76153
1012.421	14.64428
1012.788	17.22926
1013.154	17.20654
1013.52	19.62408
1013.886	13.94698
1014.252	12.53076
1014.618	14.29139
1014.984	12.9918
1015.35	15.04619
1015.716	18.40286
1016.081	13.46385
1016.447	16.12349
1016.813	16.33394
1017.178	11.16313
1017.544	17.62709
1017.909	16.18982
1018.274	8.43606
1018.64	9.91153
1019.005	15.98858
1019.37	8.95511
1019.735	13.43651
1020.1	6.63064
1020.465	11.49786
1020.83	12.745
1021.195	6.55704
1021.56	14.80479
1021.924	12.86915
1022.289	13.19328
1022.654	13.23995
1023.018	10.66042
1023.383	4.05374
1023.747	11.86786
1024.111	11.34042
1024.476	12.58095
1024.84	10.92901
1025.204	11.60416
1025.568	0.18533
1025.932	12.08128
1026.296	13.6325
1026.66	7.35543
1027.024	16.7213
1027.387	4.12991
1027.751	9.12295
1028.115	8.94772
1028.478	2.04307
1028.842	0.23236
1029.205	12.90768
1029.569	6.3236
1029.932	1.40071
1030.295	12.9014
1030.659	-2.59213
1031.022	-3.61472
1031.385	7.26289
1031.748	1.1952
1032.111	4.70868
1032.474	5.62252
1032.836	-7.59684
1033.199	5.50593
1033.562	-7.36936
1033.924	0.78682
1034.287	7.3837
1034.65	-9.24709
1035.012	4.06221
1035.374	3.14076
1035.737	-7.83805
1036.099	-11.82965
1036.461	5.57062
1036.823	-6.20701
1037.185	5.18396
1037.547	1.87972
1037.909	-3.18269
1038.271	-1.38328
1038.633	-11.53122
1038.995	-3.98426
1039.356	-18.26353
1039.718	1.10643
1040.08	7.82519
1040.441	5.70064
1040.803	-5.65726
1041.164	-18.69289
1041.525	-8.91678
1041.886	-8.42442
1042.248	-4.29461
1042.609	3.28757
1042.97	-17.63871
1043.331	-4.74374
1043.692	-13.37485
1044.053	-11.53318
1044.413	-7.75895
1044.774	-10.66604
1045.135	-17.74819
1045.495	-39.34268
1045.856	-8.33013
1046.216	-31
1046.577	8.06179
1046.937	5.2841
1047.298	-17.46316
