Data from 1014water-6_Reflection__2__23-48-50-576.txt Node

Date: Tue Oct 14 23:48:50 AST 2025
User: lin
Spectrometer: SR600411
Trigger mode: 0
Integration Time (sec): 5.910000E-2
Scans to average: 5
Nonlinearity correction enabled: true
Boxcar width: 0
Storing dark spectrum: false
XAxis mode: Wavelengths
Number of Pixels in Spectrum: 2048
>>>>>Begin Spectral Data<<<<<
187.982	57.63088
188.456	31.84028
188.93	62.34112
189.403	43.29688
189.877	35.79144
190.351	37.40502
190.825	40.07117
191.298	21.48364
191.772	41.98023
192.246	40.06392
192.719	32.93375
193.193	56.53166
193.666	19.90254
194.139	21.45147
194.613	49.7869
195.086	47.0223
195.559	43.12244
196.033	52.90711
196.506	43.10342
196.979	52.51058
197.452	62.32278
197.925	43.4249
198.398	54.94266
198.871	49.42369
199.344	47.06908
199.816	34.8195
200.289	42.6232
200.762	31.78795
201.235	52.66755
201.707	14.96587
202.18	23.22035
202.652	23.07191
203.125	1.88621
203.597	38.92515
204.07	13.76488
204.542	14.42054
205.014	17.64315
205.486	26.05094
205.959	-3.18369
206.431	31.12759
206.903	43.74455
207.375	32.79456
207.847	28.81664
208.319	38.33965
208.791	-42.84698
209.263	32.55255
209.734	29.22546
210.206	-21.91396
210.678	29.70445
211.15	-13.99685
211.621	21.58797
212.093	23.65945
212.564	-61.27823
213.036	21.42531
213.507	36.42821
213.979	-2.77717
214.45	5.61704
214.921	41.31651
215.392	-8.47243
215.864	0
216.335	-8.98704
216.806	-49.99023
217.277	26.87811
217.748	-12.35711
218.219	3.88274
218.69	-124.46273
219.161	-22.07383
219.631	-48.22329
220.102	15.42792
220.573	-1.21931
221.043	-42.54193
221.514	23.52518
221.985	-31.87833
222.455	20.32127
222.926	17.94645
223.396	-28.08356
223.866	4.8773
224.337	-0.9007
224.807	-35.62387
225.277	-16.45271
225.747	2.19742
226.217	-6.89486
226.687	-1.19028
227.157	12.86905
227.627	-9.56284
228.097	12.6565
228.567	-14.94963
229.037	-6.24874
229.507	-8.90895
229.977	0
230.446	5.99944
230.916	31.89157
231.386	-42.34282
231.855	-9.43288
232.325	5.08418
232.794	-47.54962
233.263	40.39933
233.733	6.15236
234.202	0
234.671	-39.0711
235.14	-9.85764
235.61	-19.39992
236.079	14.77054
236.548	-15.14924
237.017	15.38227
237.486	-9.67612
237.955	5.17185
238.424	2.38037
238.892	28.56832
239.361	-26.7558
239.83	20.92742
240.299	13.11201
240.767	-128.54704
241.236	-24.13278
241.704	-48.67335
242.173	5.26241
242.641	-24.23849
243.109	8.40155
243.578	-86.13325
244.046	-15.62272
244.514	-20.54437
244.982	-78.44353
245.451	-24.99679
245.919	0
246.387	-37.49429
246.855	3.52884
247.323	-19.76342
247.791	-0.91723
248.258	17.20168
248.726	-43.32598
249.194	-71.41334
249.662	36.92008
250.129	-31.38834
250.597	-12.16017
251.064	10.46352
251.532	-33.32701
251.999	-53.05336
252.467	12.67451
252.934	-79.01492
253.401	-56.15177
253.869	27.49685
254.336	10.75092
254.803	-40.34451
255.27	21.27348
255.737	-2.94077
256.204	5.63306
256.671	-47.6103
257.138	19.31547
257.605	-23.99706
258.072	-59.44561
258.539	-23.18451
259.005	36.24634
259.472	-36.22515
259.939	20.58604
260.405	-12.49867
260.872	-75.30458
261.338	-70.5761
261.805	7.14139
262.271	-93.60019
262.737	26.66261
263.203	7.8931
263.67	-125.97185
264.136	25.68396
264.602	-27.05305
265.068	-132.47565
265.534	-35.41211
266	-55.80656
266.466	-78.76951
266.932	-45.23264
267.398	-50.7594
267.864	-9.58753
268.329	-6.34837
268.795	-206.8602
269.261	-15.93951
269.726	-30.76406
270.192	-34.99252
270.657	-52.37101
271.123	-23.29513
271.588	-38.7703
272.053	-6.17179
272.519	24.63515
272.984	-44.82015
273.449	0
273.914	-23.90766
274.379	-21.8345
274.844	-9.58752
275.309	-59.98671
275.774	-21.2742
276.239	24.8175
276.704	-4.25449
277.169	-31.5142
277.634	32.52652
278.098	-26.96027
278.563	-23.52648
279.028	47.05463
279.492	-86.65228
279.957	-6.55653
280.421	-11.6268
280.886	1.99961
281.35	25.87913
281.814	-7.56111
282.279	-37.79644
282.743	35.63898
283.207	-110.79375
283.671	-19.39992
284.135	-38.8812
284.599	0
285.063	-34.42065
285.527	-61.75127
285.991	-106.50174
286.455	-33.92354
286.919	-130.75373
287.382	-16.17395
287.846	-37.17163
288.31	14.89126
288.773	-14.70475
289.237	-7.81143
289.7	-38.79884
290.164	-43.82652
290.627	-51.71514
291.09	-13.74753
291.554	-13.55753
292.017	-176.89794
292.48	-13.15565
292.943	-11.11001
293.406	-32.68785
293.869	26.20966
294.332	-53.05336
294.795	9.75467
295.258	11.93891
295.721	-87.48444
296.184	1.96059
296.646	-16.39114
297.109	11.33828
297.572	-321.39108
298.034	-17.33032
298.497	-78.71034
298.959	-733.2971
299.422	-132.58063
299.884	-41.85542
300.346	-61.99008
300.809	-37.83403
301.271	14.1007
301.733	32.87353
302.195	-58.91822
302.657	-8.33162
303.119	-72.70815
303.581	-162.94012
304.043	1.38869
304.505	-5.04947
304.967	-6.40921
305.429	30.0928
305.891	30.87948
306.352	29.02973
306.814	27.15733
307.275	0
307.737	-3.94675
308.198	27.26971
308.66	-25.75335
309.121	-51.33998
309.583	15.38361
310.044	-55.1675
310.505	26.95204
310.966	-40.67129
311.428	-10.525
311.889	21.53629
312.35	32.87353
312.811	-63.63184
313.272	-38.45744
313.733	-5.26212
314.193	1059.60479
314.654	-19.99692
315.115	-61.5308
315.576	-20.40579
316.036	-53.83552
316.497	-249.96198
316.957	-242.84563
317.418	-90.90154
317.878	-16.32469
318.339	37.14124
318.799	40.24001
319.259	-17.85365
319.72	-22.49564
320.18	11.86319
320.64	-93.32264
321.1	-1.85165
321.56	-53.43887
322.02	-26.52736
322.48	46.06305
322.94	-103.83527
323.4	19.99842
323.86	-2.38055
324.319	-718.05414
324.779	-32.94692
325.239	-36.22515
325.698	-16.46736
326.158	-57.4384
326.617	-57.88446
327.077	-49.99377
327.536	-102.25474
327.996	17.71924
328.455	-26.24476
328.914	18.86632
329.373	39.39082
329.832	-4.65033
330.292	-5.3753
330.751	-38.2282
331.21	4.99962
331.668	-27.07681
332.127	10.90698
332.586	-92.70784
333.045	41.29994
333.504	-85.09177
333.962	-19.39992
334.421	-106.66013
334.88	-53.18393
335.338	-58.32457
335.797	58.90062
336.255	-103.14848
336.714	28.86204
337.172	-7.69039
337.63	-55.09376
338.088	31.47688
338.547	-80.93415
339.005	-10.8414
339.463	-0.92573
339.921	-38.79885
340.379	-67.33602
340.837	-6.4092
341.295	-47.36056
341.753	-5.45392
342.21	0
342.668	-21.04976
343.126	-15.71177
343.584	-25.29601
344.041	-22.46707
344.499	-34.60821
344.956	18.86632
345.414	-1.8014
345.871	-142.19161
346.328	-43.93115
346.786	-23.21112
347.243	9.99911
347.7	-61.8923
348.157	-51.84346
348.614	-14.28345
349.071	1.35116
349.528	-1233.23577
349.985	7.3754
350.442	-41.53092
350.899	-60.85621
351.356	-26.66166
351.812	-30.10033
352.269	-20.19727
352.726	12.49914
353.182	-25.26903
353.639	-13.09278
354.095	29.86694
354.552	-32.34719
355.008	-30.50384
355.465	42.02567
355.921	35.2233
356.377	-9.99805
356.833	-28.16395
357.289	16.86517
357.745	1.08676
358.201	-18.05253
358.657	23.22883
359.113	-16.99607
359.569	15.78698
360.025	15.64242
360.481	23.14436
360.937	-35.70624
361.392	30.54952
361.848	36.79427
362.303	-0.75738
362.759	8.25525
363.214	28.75192
363.67	28.11734
364.125	23.52157
364.581	44.47387
365.036	42.43718
365.491	32.58892
365.946	31.49021
366.401	38.47265
366.856	48.52957
367.311	30.35453
367.766	39.26861
368.221	43.61359
368.676	45.13304
369.131	48.45677
369.586	53.02095
370.041	45.78384
370.495	54.26286
370.95	50.59359
371.404	52.57486
371.859	50.16482
372.313	51.13466
372.768	49.84084
373.222	52.85126
373.676	53.2378
374.131	51.18827
374.585	51.74024
375.039	54.89913
375.493	52.62539
375.947	59.11645
376.401	54.19371
376.855	56.25664
377.309	58.32779
377.763	54.86452
378.217	55.38253
378.67	53.71207
379.124	54.58473
379.578	54.7786
380.031	56.63601
380.485	54.8974
380.938	54.56551
381.392	55.4522
381.845	53.02359
382.299	57.85626
382.752	57.39418
383.205	54.43989
383.658	56.67496
384.111	57.08972
384.564	55.5763
385.018	56.90435
385.471	56.27628
385.923	55.65205
386.376	57.80817
386.829	56.96703
387.282	58.70328
387.735	56.22324
388.187	56.38207
388.64	58.64566
389.093	58.14091
389.545	58.19896
389.998	57.2336
390.45	57.37929
390.902	57.41352
391.355	58.00178
391.807	59.41992
392.259	58.56803
392.711	58.09104
393.163	58.25053
393.615	58.4196
394.068	58.63033
394.519	59.12687
394.971	57.76933
395.423	57.71402
395.875	58.65192
396.327	57.77557
396.779	57.37802
397.23	57.94484
397.682	58.61053
398.133	57.85437
398.585	57.38501
399.036	58.07543
399.488	58.61064
399.939	58.12977
400.39	58.33024
400.842	57.43136
401.293	57.45045
401.744	57.50143
402.195	57.78902
402.646	57.19406
403.097	57.6268
403.548	57.37685
403.999	57.87439
404.45	57.5845
404.9	57.33866
405.351	56.40184
405.802	57.13543
406.253	55.90984
406.703	56.57026
407.154	56.67559
407.604	56.15182
408.055	55.65492
408.505	56.56005
408.955	56.36292
409.406	56.31257
409.856	55.32831
410.306	55.30102
410.756	55.22167
411.206	55.2514
411.656	54.80448
412.106	55.20143
412.556	54.39702
413.006	54.43305
413.456	54.59611
413.905	53.26095
414.355	53.40952
414.805	54.17027
415.254	54.75421
415.704	53.43459
416.153	53.39862
416.603	54.24694
417.052	52.79598
417.502	53.20045
417.951	51.96342
418.4	52.27236
418.849	52.6373
419.298	52.30368
419.748	52.45071
420.197	52.05089
420.646	52.46923
421.094	52.29861
421.543	51.6325
421.992	51.69919
422.441	51.4342
422.89	51.17706
423.338	51.27084
423.787	51.04407
424.236	51.0427
424.684	50.82768
425.133	50.74355
425.581	49.89467
426.029	49.94678
426.478	49.68494
426.926	50.04301
427.374	49.35646
427.822	49.76731
428.27	49.79588
428.718	49.27132
429.166	49.16574
429.614	49.3002
430.062	48.88865
430.51	48.59414
430.958	48.60419
431.406	49.043
431.853	48.96095
432.301	48.76352
432.749	48.65883
433.196	48.50956
433.644	48.42241
434.091	48.27797
434.538	47.87663
434.986	48.21096
435.433	47.684
435.88	47.70562
436.327	47.45948
436.775	47.8405
437.222	47.61376
437.669	47.64131
438.116	47.49817
438.563	47.61792
439.009	47.65767
439.456	47.37302
439.903	48.14767
440.35	47.57784
440.796	47.34434
441.243	47.60477
441.689	47.92099
442.136	47.44945
442.582	47.17306
443.029	47.40052
443.475	47.41747
443.921	47.04583
444.368	47.28035
444.814	46.99876
445.26	47.48693
445.706	47.33204
446.152	46.94128
446.598	47.30569
447.044	47.49723
447.49	47.87139
447.936	47.23377
448.381	46.89394
448.827	47.77385
449.273	47.86413
449.718	47.67865
450.164	47.04717
450.61	47.05626
451.055	47.63739
451.5	47.30656
451.946	47.11371
452.391	47.33251
452.836	47.49294
453.282	47.19299
453.727	47.83882
454.172	47.43301
454.617	47.7219
455.062	47.46875
455.507	47.67937
455.952	47.57381
456.396	47.54205
456.841	47.87191
457.286	48.35902
457.731	47.7966
458.175	48.18315
458.62	48.26093
459.064	48.12933
459.509	48.22772
459.953	48.3068
460.398	48.29643
460.842	48.72703
461.286	48.75297
461.73	48.38595
462.174	48.366
462.619	49.08289
463.063	48.67482
463.507	48.93195
463.951	49.04634
464.394	49.38583
464.838	49.35
465.282	49.59761
465.726	49.9106
466.17	50.02924
466.613	50.16074
467.057	50.30515
467.5	50.71391
467.944	50.54314
468.387	51.20326
468.831	51.24397
469.274	51.82701
469.717	52.00808
470.16	51.9606
470.603	52.16586
471.047	52.32007
471.49	52.33279
471.933	52.99673
472.376	52.63662
472.818	52.94153
473.261	53.06255
473.704	53.24309
474.147	53.40597
474.59	54.09223
475.032	54.05447
475.475	53.77422
475.917	54.35788
476.36	54.83506
476.802	54.82159
477.245	55.09564
477.687	55.28768
478.129	55.0984
478.571	55.54847
479.013	55.696
479.456	55.67226
479.898	56.3824
480.34	56.58416
480.782	56.57508
481.224	56.81893
481.665	56.61305
482.107	57.04351
482.549	57.50612
482.991	57.55793
483.432	57.80138
483.874	58.21065
484.315	58.15273
484.757	58.07343
485.198	58.12585
485.64	58.74115
486.081	58.62219
486.522	58.84525
486.963	59.50169
487.405	58.7072
487.846	59.08592
488.287	59.25015
488.728	59.54532
489.169	59.68134
489.61	59.60941
490.05	59.33713
490.491	59.42451
490.932	59.80275
491.373	59.63548
491.813	59.93085
492.254	59.94563
492.694	60.48706
493.135	60.65692
493.575	60.31437
494.016	60.291
494.456	60.61977
494.896	60.8487
495.336	61.16924
495.777	61.3647
496.217	61.40848
496.657	61.75954
497.097	61.53028
497.537	61.21851
497.977	61.69601
498.416	61.62746
498.856	61.90231
499.296	62.02278
499.736	62.15383
500.175	62.31364
500.615	62.26195
501.054	62.60743
501.494	62.72689
501.933	63.18261
502.373	62.93139
502.812	63.20131
503.251	63.42676
503.69	63.33593
504.129	64.27244
504.569	64.25388
505.008	64.48774
505.447	64.55407
505.886	65.31434
506.324	65.12955
506.763	65.48302
507.202	65.41256
507.641	65.91189
508.079	66.04469
508.518	66.27647
508.957	66.0883
509.395	66.31577
509.834	67.20718
510.272	67.18041
510.71	67.64867
511.149	67.67303
511.587	67.66468
512.025	68.04076
512.463	68.25318
512.901	68.73724
513.339	69.26177
513.777	69.75988
514.215	69.19322
514.653	70.11636
515.091	70.23953
515.529	69.68481
515.966	70.46003
516.404	70.63834
516.842	71.19617
517.279	71.07586
517.717	71.37622
518.154	71.784
518.592	71.84666
519.029	71.9388
519.466	72.909
519.904	72.34646
520.341	73.24492
520.778	73.73617
521.215	73.20489
521.652	74.1517
522.089	73.91668
522.526	73.80824
522.963	74.11735
523.399	74.50015
523.836	74.59339
524.273	75.35949
524.71	75.32766
525.146	75.5091
525.583	76.19156
526.019	76.65813
526.456	76.35976
526.892	76.92335
527.328	76.69813
527.765	76.91387
528.201	77.29931
528.637	77.54035
529.073	77.94109
529.509	78.09427
529.945	78.1541
530.381	78.48281
530.817	79.35762
531.253	78.99587
531.689	78.99215
532.124	79.03198
532.56	79.15634
532.996	79.51277
533.431	79.38482
533.867	80.60614
534.302	79.63139
534.738	80.23729
535.173	81.05514
535.608	81.07802
536.044	81.18612
536.479	81.17784
536.914	81.86349
537.349	82.01157
537.784	81.57016
538.219	82.09173
538.654	82.12695
539.089	82.28163
539.524	81.81025
539.959	82.51012
540.393	81.75105
540.828	82.29967
541.263	82.27868
541.697	82.3684
542.132	82.49051
542.566	82.59853
543.001	82.72083
543.435	83.28955
543.869	82.77236
544.303	82.81214
544.738	83.46309
545.172	82.50963
545.606	82.7983
546.04	83.29874
546.474	82.30883
546.908	82.87187
547.342	83.28327
547.775	83.00039
548.209	82.77497
548.643	82.50558
549.077	82.3418
549.51	82.99897
549.944	82.24151
550.377	82.0105
550.811	82.36915
551.244	81.92392
551.677	81.47611
552.111	81.79091
552.544	80.99786
552.977	81.21733
553.41	80.9637
553.843	80.51363
554.276	80.39861
554.709	80.41259
555.142	80.52833
555.575	80.15052
556.008	79.9316
556.44	80.0437
556.873	79.72082
557.306	79.65707
557.738	79.25576
558.171	78.63492
558.603	78.47399
559.036	78.30783
559.468	77.58621
559.9	78.68769
560.333	77.5295
560.765	77.79522
561.197	77.71681
561.629	77.10073
562.061	77.17281
562.493	76.41123
562.925	76.0996
563.357	75.78885
563.789	76.11552
564.22	75.4797
564.652	74.9526
565.084	75.00383
565.515	74.91662
565.947	74.98919
566.378	74.47911
566.81	73.93413
567.241	73.57945
567.672	72.95279
568.104	72.91543
568.535	72.69254
568.966	72.61078
569.397	72.2707
569.828	71.90954
570.259	71.85392
570.69	71.35428
571.121	71.21992
571.552	71.07344
571.983	70.54452
572.414	70.01711
572.844	69.52792
573.275	69.52223
573.705	69.17038
574.136	68.75182
574.566	69.10694
574.997	68.49564
575.427	67.91529
575.857	67.3352
576.288	67.45149
576.718	67.31151
577.148	66.5346
577.578	66.68565
578.008	66.55728
578.438	65.84982
578.868	65.51012
579.298	66.2259
579.728	65.47193
580.157	64.72265
580.587	64.63104
581.017	64.59169
581.446	63.80369
581.876	63.79084
582.305	63.68126
582.735	62.82962
583.164	62.46422
583.593	62.34565
584.023	61.87073
584.452	61.94144
584.881	61.48878
585.31	61.85559
585.739	61.54243
586.168	61.31094
586.597	61.2048
587.026	61.42381
587.455	60.95862
587.884	60.53069
588.312	59.94099
588.741	59.78613
589.17	59.64577
589.598	59.04027
590.027	58.96989
590.455	58.72669
590.884	58.71045
591.312	58.77188
591.74	57.88782
592.168	57.82114
592.597	57.76352
593.025	57.14273
593.453	56.81264
593.881	56.7701
594.309	56.46857
594.737	56.54522
595.165	55.40054
595.592	55.42573
596.02	55.6606
596.448	54.99753
596.875	54.94339
597.303	54.77343
597.73	54.49553
598.158	54.68237
598.585	54.13414
599.013	54.01196
599.44	53.66857
599.867	53.93454
600.294	53.64983
600.722	53.42105
601.149	53.22999
601.576	52.87336
602.003	52.92657
602.43	52.75058
602.856	52.30232
603.283	52.23359
603.71	51.68905
604.137	51.60899
604.563	51.94224
604.99	51.31189
605.416	50.96565
605.843	50.64012
606.269	50.56187
606.696	50.56035
607.122	50.25582
607.548	50.41035
607.975	50.07367
608.401	50.06038
608.827	50.14905
609.253	49.99861
609.679	49.67795
610.105	49.95302
610.531	49.45656
610.956	49.65868
611.382	48.98038
611.808	48.87083
612.234	49.01323
612.659	49.10229
613.085	48.81027
613.51	48.35553
613.936	48.76242
614.361	48.68441
614.786	48.64249
615.212	48.37637
615.637	48.36067
616.062	48.27056
616.487	48.2544
616.912	48.08137
617.337	47.67075
617.762	48.2218
618.187	47.71439
618.612	47.59803
619.037	47.79296
619.461	47.51533
619.886	47.34853
620.311	47.84907
620.735	47.74517
621.16	47.51836
621.584	47.2057
622.008	47.3221
622.433	47.48114
622.857	47.12071
623.281	47.07124
623.705	47.01919
624.13	46.82164
624.554	47.11289
624.978	47.46393
625.402	47.22337
625.826	47.21473
626.249	47.34514
626.673	47.13367
627.097	47.2988
627.521	46.98198
627.944	46.84713
628.368	47.20836
628.791	47.37822
629.215	47.07635
629.638	47.25312
630.061	47.54888
630.485	47.8081
630.908	47.44709
631.331	47.56445
631.754	47.30464
632.177	47.45459
632.6	47.58098
633.023	47.6785
633.446	47.98361
633.869	47.59727
634.292	47.44523
634.715	47.76782
635.137	48.16627
635.56	48.43268
635.982	48.38948
636.405	48.3271
636.827	48.53133
637.25	48.66443
637.672	48.69076
638.094	49.16615
638.517	48.68236
638.939	49.08163
639.361	48.96038
639.783	49.19512
640.205	49.12111
640.627	49.48108
641.049	49.75174
641.471	50.00121
641.893	50.02943
642.314	50.17558
642.736	50.35207
643.158	50.58305
643.579	50.4803
644.001	50.57362
644.422	50.79083
644.844	50.9342
645.265	51.18316
645.686	51.16866
646.107	51.46738
646.529	51.45947
646.95	51.7579
647.371	52.19358
647.792	52.19422
648.213	52.35677
648.634	52.83353
649.055	52.46102
649.475	53.0138
649.896	52.74423
650.317	53.30617
650.737	53.79889
651.158	53.79209
651.578	54.18475
651.999	55.12216
652.419	54.71532
652.84	54.52038
653.26	55.20781
653.68	55.14006
654.1	55.34724
654.521	55.32717
654.941	55.57768
655.361	56.63336
655.781	56.16294
656.2	56.23253
656.62	56.58288
657.04	57.22798
657.46	57.64622
657.879	57.92354
658.299	57.50911
658.719	58.20454
659.138	58.48559
659.558	58.0807
659.977	58.92695
660.396	58.02485
660.816	59.18406
661.235	58.4869
661.654	59.20735
662.073	60.11873
662.492	59.78255
662.911	60.6187
663.33	60.85443
663.749	60.35882
664.168	60.54548
664.587	60.48772
665.006	60.2124
665.424	61.62734
665.843	61.14007
666.261	61.15708
666.68	61.3583
667.098	62.04619
667.517	62.50617
667.935	62.26377
668.353	62.69978
668.772	62.28654
669.19	62.46094
669.608	63.25749
670.026	63.11015
670.444	63.45348
670.862	63.51366
671.28	63.28121
671.698	63.74884
672.115	63.48147
672.533	63.98994
672.951	63.7381
673.368	63.92607
673.786	63.66902
674.203	63.73307
674.621	64.11252
675.038	64.17757
675.456	64.7334
675.873	63.69121
676.29	63.37144
676.707	64.1738
677.124	63.22288
677.541	64.30264
677.958	63.90628
678.375	64.26966
678.792	63.83679
679.209	63.59266
679.626	64.24256
680.043	63.66951
680.459	64.80271
680.876	63.93706
681.292	63.93714
681.709	64.23957
682.125	63.86507
682.542	64.42142
682.958	63.23562
683.374	63.76474
683.79	63.67756
684.207	63.69223
684.623	63.82405
685.039	63.83537
685.455	63.47245
685.871	62.93966
686.286	63.34563
686.702	62.60447
687.118	63.18182
687.534	62.74417
687.949	62.70559
688.365	62.59371
688.781	62.1724
689.196	62.71185
689.611	61.99406
690.027	62.37744
690.442	61.97331
690.857	61.82706
691.273	61.41461
691.688	61.38433
692.103	61.52806
692.518	60.68546
692.933	60.57814
693.348	61.05346
693.763	60.20473
694.177	59.90677
694.592	60.32532
695.007	60.0823
695.421	59.69806
695.836	59.9563
696.25	58.82201
696.665	59.08062
697.079	58.03155
697.494	58.79552
697.908	58.31468
698.322	58.00364
698.736	57.70015
699.151	57.88534
699.565	57.21809
699.979	57.4935
700.393	56.5785
700.806	56.30903
701.22	56.49746
701.634	55.51211
702.048	55.90697
702.461	54.71448
702.875	55.20019
703.289	54.87779
703.702	54.88357
704.116	54.95625
704.529	54.22564
704.942	54.01929
705.356	54.32317
705.769	53.64533
706.182	53.38126
706.595	52.49853
707.008	52.21168
707.421	52.35531
707.834	51.63442
708.247	51.68086
708.66	50.72821
709.072	51.33192
709.485	50.6712
709.898	51.02933
710.31	50.24724
710.723	50.51906
711.135	49.5014
711.548	49.86291
711.96	49.26843
712.373	49.19776
712.785	48.37397
713.197	48.39968
713.609	48.39963
714.021	48.17975
714.433	47.16051
714.845	47.01115
715.257	47.22669
715.669	46.93613
716.081	46.4637
716.493	45.98982
716.904	45.8443
717.316	45.17177
717.727	44.94307
718.139	44.39662
718.55	44.81914
718.962	43.78718
719.373	44.09602
719.784	43.39141
720.196	43.11536
720.607	42.8637
721.018	42.83608
721.429	42.11747
721.84	41.78308
722.251	41.5115
722.662	41.95251
723.073	40.65087
723.483	41.42975
723.894	40.29761
724.305	40.77467
724.715	39.70683
725.126	39.83644
725.536	39.16276
725.947	39.22009
726.357	38.68201
726.768	39.28073
727.178	38.30618
727.588	38.3651
727.998	37.85467
728.408	37.86609
728.818	37.28767
729.228	37.485
729.638	36.37345
730.048	36.7107
730.458	36.02966
730.868	36.43088
731.277	35.55025
731.687	35.54487
732.097	35.63864
732.506	35.41841
732.916	35.06057
733.325	35.08026
733.734	34.96526
734.144	34.61796
734.553	34.79202
734.962	33.71201
735.371	34.06603
735.78	33.50276
736.189	34.12929
736.598	33.1327
737.007	33.50049
737.416	32.73222
737.825	32.65072
738.233	31.97899
738.642	32.85636
739.051	32.10561
739.459	32.65099
739.868	31.82069
740.276	32.16176
740.684	31.61402
741.093	31.67915
741.501	31.08349
741.909	31.11219
742.317	31.17649
742.725	30.92059
743.133	30.56266
743.541	30.65049
743.949	30.80277
744.357	30.34656
744.765	30.65857
745.173	29.80007
745.58	30.65238
745.988	29.37834
746.396	29.90091
746.803	29.549
747.211	29.85556
747.618	29.35883
748.025	29.57985
748.433	28.94891
748.84	29.21952
749.247	28.95956
749.654	28.4928
750.061	29.10788
750.468	28.6658
750.875	28.85532
751.282	28.09414
751.689	28.29382
752.096	27.38123
752.502	28.46417
752.909	27.6409
753.316	27.77876
753.722	27.8374
754.129	27.85901
754.535	27.97267
754.941	27.61601
755.348	28.23488
755.754	27.11366
756.16	28.11232
756.566	27.32266
756.972	27.90097
757.378	27.36018
757.784	27.34692
758.19	27.05786
758.596	27.1815
759.002	27.24756
759.408	27.05038
759.813	27.26403
760.219	26.5898
760.624	27.15865
761.03	26.89254
761.435	26.71564
761.841	25.89655
762.246	26.56397
762.651	26.1641
763.057	26.17774
763.462	27.18367
763.867	26.48629
764.272	27.48988
764.677	27.09845
765.082	27.10288
765.487	26.75557
765.892	26.77885
766.296	26.62103
766.701	26.15994
767.106	26.46159
767.51	26.14563
767.915	26.596
768.319	25.81498
768.724	26.22736
769.128	26.43089
769.532	25.72576
769.936	26.19918
770.341	25.36811
770.745	26.20986
771.149	25.44352
771.553	25.88537
771.957	25.6188
772.361	25.64557
772.764	26.08664
773.168	25.3593
773.572	25.62011
773.976	24.96276
774.379	25.95679
774.783	25.04066
775.186	25.79357
775.59	25.17923
775.993	25.06426
776.396	25.8338
776.8	24.82464
777.203	25.54156
777.606	25.1439
778.009	25.80978
778.412	25.80279
778.815	25.25655
779.218	25.89748
779.621	25.16048
780.023	25.8622
780.426	25.4149
780.829	25.98299
781.231	25.68276
781.634	25.20339
782.036	25.8093
782.439	24.98502
782.841	25.70775
783.244	25.52265
783.646	25.2344
784.048	26.13946
784.45	24.88193
784.852	25.50607
785.254	25.67911
785.656	25.44642
786.058	25.65607
786.46	25.6104
786.862	25.81579
787.264	24.71127
787.665	25.24498
788.067	25.51981
788.468	25.07673
788.87	25.50026
789.271	25.07331
789.673	25.34728
790.074	25.24683
790.475	25.60008
790.877	25.88962
791.278	25.27096
791.679	26.03017
792.08	25.09214
792.481	25.31705
792.882	25.5708
793.283	25.0132
793.683	25.1631
794.084	25.14898
794.485	25.2756
794.886	25.56835
795.286	25.08585
795.687	25.76508
796.087	25.02651
796.487	25.50275
796.888	25.52359
797.288	25.00766
797.688	25.35122
798.088	24.95503
798.489	25.23739
798.889	25.46145
799.289	25.7238
799.689	25.6308
800.088	25.09739
800.488	25.66371
800.888	25.84338
801.288	25.33517
801.687	26.15955
802.087	25.39214
802.486	25.48461
802.886	25.62038
803.285	25.19497
803.685	25.95842
804.084	25.74755
804.483	25.99421
804.882	25.86888
805.281	25.24918
805.68	25.91021
806.079	25.98585
806.478	26.07673
806.877	25.97138
807.276	25.61068
807.675	26.13921
808.074	25.1576
808.472	25.37506
808.871	26.23883
809.269	25.33395
809.668	26.47397
810.066	25.93731
810.465	25.8995
810.863	26.33169
811.261	25.69293
811.659	25.91549
812.057	26.31966
812.455	25.9972
812.853	26.21052
813.251	25.94492
813.649	25.85238
814.047	25.91179
814.445	25.73314
814.843	26.3783
815.24	25.93286
815.638	25.81511
816.035	26.38824
816.433	25.40749
816.83	26.39942
817.228	26.35729
817.625	25.87034
818.022	26.62826
818.419	26.03778
818.816	26.37091
819.213	26.6795
819.61	26.01291
820.007	26.75788
820.404	26.71491
820.801	26.7951
821.198	27.24569
821.595	26.57767
821.991	27.15556
822.388	27.75409
822.784	27.3045
823.181	27.90314
823.577	27.93272
823.974	27.71805
824.37	28.17844
824.766	27.73849
825.162	27.594
825.558	27.77913
825.954	27.04265
826.35	27.775
826.746	27.64084
827.142	27.48982
827.538	28.15706
827.934	27.86518
828.33	27.76831
828.725	27.64627
829.121	27.15618
829.516	27.43344
829.912	27.37694
830.307	27.06641
830.703	27.31594
831.098	27.24947
831.493	27.18604
831.888	27.41006
832.283	26.63281
832.678	27.14112
833.073	27.73791
833.468	27.43135
833.863	27.75765
834.258	28.22956
834.653	27.5508
835.048	28.01554
835.442	27.82308
835.837	27.50418
836.231	28.27433
836.626	27.62319
837.02	27.37511
837.415	27.72716
837.809	27.35117
838.203	27.71768
838.597	27.8769
838.991	26.61192
839.385	27.30227
839.779	27.08488
840.173	27.02592
840.567	27.97569
840.961	27.22257
841.355	27.6839
841.748	28.04636
842.142	27.44488
842.536	27.73712
842.929	28.04452
843.323	27.27719
843.716	27.48911
844.109	27.88099
844.503	26.8407
844.896	27.80689
845.289	28.20621
845.682	26.99683
846.075	28.80208
846.468	27.95864
846.861	27.11216
847.254	28.0306
847.647	27.87488
848.04	27.44717
848.432	28.02631
848.825	27.64965
849.217	27.26432
849.61	28.54162
850.002	27.59072
850.395	27.93602
850.787	28.32025
851.179	27.68371
851.572	27.77421
851.964	27.51985
852.356	28.32642
852.748	28.06442
853.14	28.59498
853.532	28.02624
853.924	27.86073
854.315	28.0459
854.707	27.64985
855.099	28.21334
855.491	27.3284
855.882	27.3454
856.274	28.03893
856.665	27.6479
857.056	27.62182
857.448	27.83126
857.839	28.14916
858.23	26.97463
858.621	28.0886
859.012	27.1244
859.403	26.62998
859.794	28.15
860.185	28.40472
860.576	28.3301
860.967	28.16009
861.358	27.79205
861.748	27.34264
862.139	27.8236
862.529	28.1901
862.92	27.42482
863.31	28.37526
863.701	27.62996
864.091	27.25865
864.481	28.00635
864.872	27.94123
865.262	27.28976
865.652	28.31115
866.042	27.97164
866.432	27.37546
866.822	28.13728
867.211	27.60135
867.601	27.90481
867.991	28.40456
868.381	28.12226
868.77	27.11737
869.16	28.54446
869.549	28.30238
869.939	27.46387
870.328	27.55943
870.717	27.84643
871.106	27.70898
871.496	27.57369
871.885	27.44342
872.274	27.35999
872.663	28.03973
873.052	28.258
873.441	27.2928
873.829	27.44735
874.218	27.23324
874.607	27.1565
874.996	27.44846
875.384	27.53292
875.773	27.00194
876.161	27.08492
876.549	27.8918
876.938	27.24529
877.326	27.26099
877.714	28.02916
878.102	26.7774
878.491	26.92042
878.879	27.07623
879.267	26.59957
879.655	27.17901
880.042	28.01463
880.43	27.26449
880.818	27.72883
881.206	28.09332
881.593	27.73627
881.981	27.78043
882.368	28.48877
882.756	28.09691
883.143	28.17304
883.53	28.04619
883.918	27.49906
884.305	27.34761
884.692	27.53647
885.079	27.55522
885.466	27.63026
885.853	27.43707
886.24	27.53153
886.627	27.06772
887.014	27.5692
887.4	27.68775
887.787	27.00032
888.174	26.77761
888.56	27.22465
888.947	27.46766
889.333	26.71475
889.719	27.66545
890.106	26.8018
890.492	26.74876
890.878	27.14896
891.264	26.83215
891.65	27.00184
892.036	27.1839
892.422	26.90521
892.808	25.9718
893.194	26.18506
893.58	27.04231
893.965	26.86953
894.351	26.70483
894.736	27.08759
895.122	27.08776
895.507	26.82688
895.893	27.08598
896.278	26.78737
896.663	26.94532
897.049	27.33923
897.434	27.34731
897.819	26.9536
898.204	27.37681
898.589	27.0936
898.974	26.5022
899.359	26.78113
899.743	27.11957
900.128	27.87062
900.513	26.24103
900.897	27.12747
901.282	26.90047
901.667	25.68833
902.051	26.68533
902.435	26.76081
902.82	26.41759
903.204	26.52753
903.588	26.88399
903.972	26.80043
904.356	26.81573
904.74	27.12069
905.124	27.01768
905.508	26.41102
905.892	27.05309
906.276	27.25733
906.659	26.68472
907.043	26.14881
907.427	27.3188
907.81	27.3526
908.194	27.6948
908.577	26.94613
908.96	26.47655
909.344	26.77552
909.727	26.08373
910.11	26.65867
910.493	26.5396
910.876	26.77563
911.259	26.02951
911.642	26.52366
912.025	26.04231
912.408	26.32316
912.79	25.87043
913.173	25.44087
913.556	25.69906
913.938	26.27087
914.321	25.86328
914.703	25.34574
915.086	26.27004
915.468	26.81708
915.85	26.87722
916.232	26.50445
916.614	26.85004
916.996	26.37664
917.378	25.83164
917.76	26.88115
918.142	26.90824
918.524	25.64993
918.906	26.72859
919.288	26.54303
919.669	27.11458
920.051	26.65146
920.432	26.55587
920.814	26.32524
921.195	25.89586
921.577	26.99641
921.958	27.14404
922.339	26.28235
922.72	26.18062
923.101	26.76641
923.482	26.55194
923.863	25.93597
924.244	26.85482
924.625	25.86404
925.006	25.7833
925.387	25.6639
925.767	26.39263
926.148	26.33181
926.528	25.50852
926.909	25.74271
927.289	25.52287
927.67	25.91994
928.05	26.16889
928.43	25.11479
928.81	26.88
929.191	25.58596
929.571	24.80196
929.951	26.12526
930.331	25.72499
930.71	24.84129
931.09	24.97388
931.47	26.6675
931.85	25.88194
932.229	25.64233
932.609	25.30822
932.988	24.87556
933.368	25.35259
933.747	25.23676
934.127	25.15615
934.506	25.51558
934.885	25.59226
935.264	24.94282
935.643	26.51956
936.022	25.68215
936.401	24.65128
936.78	25.73093
937.159	25.13158
937.538	23.42169
937.916	25.37194
938.295	25.25875
938.674	24.56939
939.052	24.27723
939.431	26.00554
939.809	25.0136
940.187	24.73771
940.566	24.21656
940.944	25.37906
941.322	25.09642
941.7	23.11884
942.078	23.69987
942.456	25.02829
942.834	23.71675
943.212	22.54617
943.59	23.74516
943.968	25.32966
944.345	24.51552
944.723	24.32145
945.1	24.10533
945.478	24.16632
945.855	22.76326
946.233	23.34446
946.61	23.74779
946.987	23.98263
947.365	23.43675
947.742	23.50615
948.119	24.53449
948.496	25.03286
948.873	23.02185
949.25	24.13721
949.626	23.44579
950.003	23.3475
950.38	23.74865
950.756	23.55072
951.133	23.24074
951.51	21.82922
951.886	24.46524
952.262	23.2643
952.639	23.4456
953.015	23.52551
953.391	22.1342
953.767	21.74705
954.143	21.78059
954.519	23.17405
954.895	20.95501
955.271	23.365
955.647	23.79263
956.023	22.92677
956.399	23.23348
956.774	22.60388
957.15	23.03879
957.525	21.40743
957.901	23.69328
958.276	21.50645
958.652	21.18491
959.027	22.40221
959.402	23.01721
959.777	23.35834
960.152	22.16126
960.527	21.20617
960.902	21.44933
961.277	21.70528
961.652	21.73762
962.027	20.90585
962.402	24.15407
962.776	21.53312
963.151	22.38198
963.525	21.52169
963.9	20.31249
964.274	21.35109
964.649	21.47801
965.023	21.74575
965.397	21.64305
965.771	20.49391
966.146	23.10124
966.52	21.67944
966.894	23.0004
967.268	21.03029
967.641	20.95174
968.015	21.15567
968.389	22.17137
968.763	22.4781
969.136	20.66536
969.51	21.07515
969.883	22.48522
970.257	19.4564
970.63	21.55903
971.003	21.44942
971.377	22.79689
971.75	23.12274
972.123	21.21758
972.496	22.98065
972.869	22.94319
973.242	21.54926
973.615	20.5711
973.988	23.23742
974.36	23.04588
974.733	23.08349
975.106	22.60747
975.478	22.16388
975.851	22.66093
976.223	22.24456
976.596	21.56687
976.968	21.76568
977.34	23.40191
977.712	21.2869
978.085	20.91142
978.457	21.89847
978.829	22.59979
979.201	22.14343
979.573	21.30636
979.944	22.64366
980.316	21.76665
980.688	21.77061
981.059	21.43191
981.431	20.47304
981.803	21.25679
982.174	21.99703
982.545	20.99933
982.917	20.47528
983.288	19.90286
983.659	18.69665
984.03	21.50442
984.401	22.0601
984.772	22.50153
985.143	21.70565
985.514	20.21493
985.885	21.86615
986.256	21.39079
986.627	21.19195
986.997	19.67354
987.368	19.81363
987.738	21.93797
988.109	19.65162
988.479	21.90097
988.85	20.54458
989.22	21.5901
989.59	22.00164
989.96	20.67617
990.33	20.20391
990.7	20.91966
991.07	21.2035
991.44	19.91114
991.81	21.19582
992.18	22.50865
992.549	21.1897
992.919	21.24317
993.289	21.28274
993.658	20.96105
994.028	21.77022
994.397	21.13649
994.766	21.69882
995.136	22.47902
995.505	21.46302
995.874	20.38113
996.243	21.23147
996.612	22.32484
996.981	21.12527
997.35	21.2759
997.719	19.56022
998.088	19.17413
998.456	23.01795
998.825	20.91827
999.194	20.67797
999.562	15.58924
999.931	22.00685
1000.299	15.50854
1000.667	18.52753
1001.036	17.76893
1001.404	22.37614
1001.772	16.45658
1002.14	19.19495
1002.508	20.71322
1002.876	18.73786
1003.244	22.86285
1003.612	15.45798
1003.98	16.47666
1004.347	19.8594
1004.715	16.63789
1005.083	22.43602
1005.45	19.23549
1005.818	16.1145
1006.185	16.60456
1006.552	22.96428
1006.92	20.30943
1007.287	13.8419
1007.654	15.5075
1008.021	18.26432
1008.388	16.59328
1008.755	20.44444
1009.122	16.77537
1009.489	17.54706
1009.856	20.65576
1010.222	15.34583
1010.589	19.24792
1010.956	19.47198
1011.322	21.58088
1011.689	19.77752
1012.055	16.22729
1012.421	16.12284
1012.788	17.79443
1013.154	17.94221
1013.52	18.97203
1013.886	13.4659
1014.252	16.47727
1014.618	15.02246
1014.984	11.23571
1015.35	11.80866
1015.716	16.06802
1016.081	17.75382
1016.447	14.49252
1016.813	16.74242
1017.178	13.16456
1017.544	15.15432
1017.909	15.05737
1018.274	12.4816
1018.64	13.87701
1019.005	19.92547
1019.37	9.44587
1019.735	16.92573
1020.1	13.80399
1020.465	17.51573
1020.83	14.67194
1021.195	7.47206
1021.56	11.53167
1021.924	17.77279
1022.289	16.96359
1022.654	7.5652
1023.018	15.99161
1023.383	9.89183
1023.747	12.04502
1024.111	8.46005
1024.476	10.36054
1024.84	19.12756
1025.204	16.13782
1025.568	9.26755
1025.932	12.08128
1026.296	15.3135
1026.66	12.66833
1027.024	13.86606
1027.387	4.12991
1027.751	13.46774
1028.115	14.48753
1028.478	2.04307
1028.842	3.25316
1029.205	7.34367
1029.569	5.902
1029.932	7.00387
1030.295	13.8398
1030.659	8.4841
1031.022	10.07064
1031.385	7.51335
1031.748	9.56227
1032.111	1.30793
1032.474	6.13368
1032.836	1.75323
1033.199	3.8541
1033.562	-13.26432
1033.924	14.9511
1034.287	9.10669
1034.65	0.29831
1035.012	8.3955
1035.374	13.13501
1035.737	-10.77713
1036.099	3.11336
1036.461	-4.58729
1036.823	-8.68968
1037.185	9.79224
1037.547	-0.62656
1037.909	-5.4105
1038.271	-2.76655
1038.633	2.44621
1038.995	3.98444
1039.356	-8.27075
1039.718	-9.21972
1040.08	6.04668
1040.441	0
1040.803	-2.26294
1041.164	6.11197
1041.525	-7.80223
1041.886	10.34006
1042.248	7.02795
1042.609	12.49345
1042.97	-2.93996
1043.331	3.47892
1043.692	-6.31614
1044.053	0
1044.413	-3.19492
1044.774	6.71624
1045.135	-9.34148
1045.495	-9.49774
1045.856	-14.43857
1046.216	-17.71502
1046.577	12.36161
1046.937	13.6511
1047.298	8.43121
