Data from 1014water-6_Reflection__24__23-51-58-918.txt Node

Date: Tue Oct 14 23:51:58 AST 2025
User: lin
Spectrometer: SR600411
Trigger mode: 0
Integration Time (sec): 5.910000E-2
Scans to average: 5
Nonlinearity correction enabled: true
Boxcar width: 0
Storing dark spectrum: false
XAxis mode: Wavelengths
Number of Pixels in Spectrum: 2048
>>>>>Begin Spectral Data<<<<<
187.982	51.0804
188.456	40.72787
188.93	38.81157
189.403	39.47563
189.877	42.37511
190.351	33.21222
190.825	32.63412
191.298	21.92213
191.772	48.90635
192.246	34.7211
192.719	9.4089
193.193	36.90604
193.666	19.45017
194.139	20.59333
194.613	28.90555
195.086	17.3662
195.559	40.83508
196.033	51.3686
196.506	41.5163
196.979	50.26335
197.452	38.65846
197.925	46.97656
198.398	47.05449
198.871	45.2339
199.344	47.06908
199.816	43.05824
200.289	45.33621
200.762	39.1603
201.235	32.57957
201.707	10.77527
202.18	10.96475
202.652	13.98262
203.125	-10.05941
203.597	12.21097
204.07	-6.51985
204.542	-8.65191
205.014	23.52458
205.486	13.37703
205.959	15.28261
206.431	4.71604
206.903	41.95889
207.375	1.59961
207.847	34.11009
208.319	5.26185
208.791	-23.80463
209.263	1.55
209.734	-7.69018
210.206	-45.19602
210.678	26.0817
211.15	-2.99939
211.621	-13.63367
212.093	19.84322
212.564	-108.03701
213.036	15.30361
213.507	6.20007
213.979	27.7735
214.45	10.11076
214.921	5.78382
215.392	-29.65206
215.864	-76.0626
216.335	22.46885
216.806	-40.90158
217.277	11.82604
217.748	-22.46706
218.219	9.70695
218.69	-138.74342
219.161	-67.51527
219.631	-22.34835
220.102	19.13085
220.573	-13.41217
221.043	-23.39889
221.514	-11.76162
221.985	-30.42937
222.455	2.43845
222.926	-29.48129
223.396	-30.33013
223.866	-17.06993
224.337	-23.41708
224.807	-16.08874
225.277	-32.90458
225.747	-17.5787
226.217	-12.92769
226.687	-42.84697
227.157	4.94956
227.627	-26.94875
228.097	-46.82471
228.567	5.60636
229.037	-29.15952
229.507	11.8791
229.977	17.38869
230.446	-55.99137
230.916	19.82394
231.386	-54.10365
231.855	-66.02626
232.325	45.75982
232.794	-106.06217
233.263	-17.16778
233.733	9.22862
234.202	-21.79078
234.671	-21.8345
235.14	-45.06125
235.61	-29.84561
236.079	-21.58634
236.548	-66.65218
237.017	-8.78949
237.486	-51.60332
237.955	-22.41065
238.424	1.58691
238.892	-33.75936
239.361	-35.20459
239.83	-12.78825
240.299	20.48788
240.767	-114.2654
241.236	-42.51831
241.704	-24.99531
242.173	5.26241
242.641	-40.90157
243.109	-14.28187
243.578	-52.29746
244.046	-57.80097
244.514	-10.95715
244.982	-33.84033
245.451	-44.22421
245.919	-9.00685
246.387	-60.70347
246.855	-39.99059
247.323	-23.25094
247.791	-19.26111
248.258	-69.87064
248.726	-76.65062
249.194	-34.91477
249.662	-66.13972
250.129	-29.06339
250.597	-17.56455
251.064	-2.32518
251.532	-37.49267
251.999	-61.21493
252.467	-57.73372
252.934	-51.60331
253.401	-87.64757
253.869	-52.48734
254.336	-12.90055
254.803	-91.20846
255.27	18.08235
255.737	-51.4601
256.204	-81.66932
256.671	-60.30543
257.138	0
257.605	-67.98871
258.072	-12.16017
258.539	-17.38852
259.005	38.74625
259.472	-31.87832
259.939	-5.88152
260.405	-52.07582
260.872	12.98529
261.338	-111.74084
261.805	-3.57061
262.271	-65.94728
262.737	15.23541
263.203	1.754
263.67	-69.98824
264.136	-24.76399
264.602	-56.45575
265.068	-99.9842
265.534	-64.57324
266	-79.05773
266.466	-6.05977
266.932	-128.54703
267.398	-43.06901
267.864	-31.50088
268.329	-46.02338
268.795	-289.59054
269.261	-33.32727
269.726	-59.98767
270.192	-17.49675
270.657	9.52274
271.123	-41.73553
271.588	-22.44632
272.053	-60.47826
272.519	14.49106
272.984	-122.38259
273.449	-82.13457
273.914	-48.89981
274.379	-1.14923
274.844	-19.17478
275.309	-14.28346
275.774	-78.71033
276.239	24.10838
276.704	4.25456
277.169	-42.38033
277.634	-1.20462
278.098	-59.53385
278.563	-41.17061
279.028	-12.93872
279.492	-31.10748
279.957	21.30945
280.421	-41.85542
280.886	1.99961
281.35	-21.17216
281.814	-6.721
282.279	-45.11135
282.743	9.89921
283.207	-178.3421
283.671	-41.7832
284.135	-59.70864
284.599	18.33156
285.063	-18.03022
285.527	-114.67276
285.991	-60.86066
286.455	-116.04366
286.919	-126.90828
287.382	-55.87065
287.846	-39.73503
288.31	-35.09758
288.773	-41.17256
289.237	-24.99605
289.7	-47.75185
290.164	-21.91395
290.627	-17.23906
291.09	-36.24219
291.554	-22.03076
292.017	-296.09365
292.48	3.9468
292.943	-33.32938
293.406	-38.45607
293.869	-7.76529
294.332	-79.57799
294.795	-29.26216
295.258	-16.41538
295.721	-91.65001
296.184	-101.94001
296.646	-67.19956
297.109	-22.67508
297.572	-435.64969
298.034	-1.33313
298.497	-99.98143
298.959	-1033.2639
299.422	-141.27332
299.884	-83.70786
300.346	-99.98024
300.809	-116.19786
301.271	-15.38188
301.733	-39.71801
302.195	-58.91822
302.657	5.2074
303.119	-9.0894
303.581	-192.56255
304.043	-18.05252
304.505	-14.13826
304.967	-20.50901
305.429	24.2681
305.891	-10.29259
306.352	-19.35201
306.814	-20.98359
307.275	-18.83753
307.737	-7.89346
308.198	-10.38786
308.66	16.66486
309.121	-54.04187
309.583	-35.89367
310.044	-162.04461
310.505	8.69385
310.966	-45.75493
311.428	-49.11455
311.889	-39.9928
312.35	-4.10897
312.811	-136.34962
313.272	-148.68948
313.733	-31.57115
314.193	1344.34949
314.654	-29.22592
315.115	-94.85754
315.576	-40.81076
316.036	-112.27708
316.497	-231.78476
316.957	-957.00287
317.418	-181.79588
317.878	-42.85121
318.339	-34.28253
318.799	-24.38533
319.259	-7.14159
319.72	-39.99114
320.18	-11.86286
320.64	-53.32849
321.1	-25.92244
321.56	-18.96293
322.02	-87.73913
322.48	-6.74031
322.94	-192.2788
323.4	-33.9955
323.86	-28.56533
324.319	-463.57959
324.779	-23.85849
325.239	-40.57193
325.698	-21.17216
326.158	-125.5056
326.617	-98.22371
327.077	-40.47147
327.536	-129.5196
327.996	-30.37356
328.455	-37.49185
328.914	-30.18456
329.373	-49.99021
329.832	-20.92593
330.292	-49.44877
330.751	-23.52551
331.21	-54.99327
331.668	-19.78717
332.127	9.08911
332.586	-63.62504
333.045	-3.26026
333.504	-127.63261
333.962	-46.2597
334.421	-233.31026
334.88	-99.98144
335.338	-91.65
335.797	10.9575
336.255	-71.41331
336.714	-18.55248
337.172	18.79989
337.63	-89.77941
338.088	-24.99333
338.547	-34.91477
339.005	-46.97662
339.463	5.55444
339.921	-38.79885
340.379	-122.42259
340.837	7.69121
341.295	-45.60655
341.753	-110.88369
342.21	-87.25496
342.668	-71.91587
343.126	-39.99226
343.584	-61.42953
344.041	-2.24679
344.499	-58.95993
344.956	5.65982
345.414	-10.80819
345.871	-124.41963
346.328	-77.25488
346.786	-30.35276
347.243	-87.98365
347.7	-71.41334
348.157	-64.80342
348.614	-18.56838
349.071	-36.4792
349.528	-1266.56396
349.985	26.22485
350.442	-61.5257
350.899	-47.81645
351.356	-3.99938
351.812	-58.04765
352.269	-1.0099
352.726	-24.99753
353.182	-48.33875
353.639	-15.47323
354.095	23.37389
354.552	-33.81745
355.008	-79.64435
355.465	-33.32728
355.921	-51.12291
356.377	7.7765
356.833	-25.34766
357.289	-63.83825
357.745	-33.68746
358.201	-30.54989
358.657	-28.27572
359.113	-10.99759
359.569	26.31215
360.025	4.0805
360.481	-11.10848
360.937	19.04506
361.392	31.93826
361.848	12.79725
362.303	3.02954
362.759	-8.25496
363.214	20.34675
363.67	17.70281
364.125	19.45018
364.581	30.02711
365.036	37.94781
365.491	26.36318
365.946	37.35003
366.401	43.0774
366.856	36.9028
367.311	30.04785
367.766	51.08099
368.221	37.9233
368.676	44.42388
369.131	39.09006
369.586	49.32521
370.041	48.20454
370.495	48.65846
370.95	49.0311
371.404	47.50238
371.859	46.13818
372.313	48.41526
372.768	49.84084
373.222	50.71478
373.676	50.33622
374.131	53.2311
374.585	51.19161
375.039	54.42657
375.493	49.26197
375.947	55.5282
376.401	53.29943
376.855	51.3405
377.309	54.70662
377.763	50.14559
378.217	53.70266
378.67	54.27063
379.124	50.94843
379.578	53.68777
380.031	53.91117
380.485	54.22057
380.938	53.6517
381.392	54.70774
381.845	53.30312
382.299	55.75429
382.752	55.22909
383.205	53.51648
383.658	54.85066
384.111	55.08678
384.564	51.82144
385.018	55.42354
385.471	55.12767
385.923	53.74697
386.376	55.71617
386.829	56.92955
387.282	56.1572
387.735	56.33991
388.187	55.77418
388.64	55.90615
389.093	56.25641
389.545	58.07551
389.998	56.51175
390.45	56.63362
390.902	56.62822
391.355	56.76233
391.807	58.70408
392.259	57.34689
392.711	58.18885
393.163	57.43888
393.615	57.53093
394.068	56.92863
394.519	57.00601
394.971	56.69787
395.423	56.83205
395.875	58.09504
396.327	56.72415
396.779	56.97306
397.23	56.38534
397.682	57.12545
398.133	56.79888
398.585	57.07472
399.036	57.59082
399.488	57.46067
399.939	57.47542
400.39	57.15922
400.842	56.84355
401.293	57.24545
401.744	56.74583
402.195	56.90351
402.646	56.1473
403.097	56.91414
403.548	55.94223
403.999	56.63367
404.45	57.37139
404.9	55.95741
405.351	56.26636
405.802	56.31278
406.253	56.06243
406.703	55.04683
407.154	55.98688
407.604	55.94044
408.055	55.32725
408.505	55.72115
408.955	55.3371
409.406	55.43234
409.856	54.53022
410.306	54.83028
410.756	54.02793
411.206	54.47158
411.656	53.87791
412.106	54.32249
412.556	53.85791
413.006	53.56228
413.456	53.26654
413.905	53.5061
414.355	53.4135
414.805	53.61354
415.254	54.06574
415.704	52.75665
416.153	53.10118
416.603	53.18098
417.052	52.44912
417.502	52.59163
417.951	52.51454
418.4	51.60589
418.849	52.31096
419.298	51.24993
419.748	51.93476
420.197	51.8293
420.646	51.54017
421.094	51.59407
421.543	51.05149
421.992	51.1404
422.441	50.84371
422.89	51.42283
423.338	50.16173
423.787	50.658
424.236	50.54144
424.684	50.34349
425.133	49.80921
425.581	50.2658
426.029	49.34862
426.478	49.28545
426.926	49.52573
427.374	49.2663
427.822	49.29158
428.27	49.57349
428.718	48.58003
429.166	48.42114
429.614	48.95649
430.062	48.71201
430.51	48.86764
430.958	48.56971
431.406	49.2878
431.853	48.63284
432.301	48.58726
432.749	47.78678
433.196	47.8253
433.644	48.14712
434.091	47.80187
434.538	47.55696
434.986	47.46552
435.433	47.18136
435.88	47.11477
436.327	47.17431
436.775	46.92405
437.222	47.0222
437.669	46.55309
438.116	47.02357
438.563	47.0918
439.009	47.35092
439.456	46.9887
439.903	47.04685
440.35	47.0772
440.796	46.90511
441.243	46.83604
441.689	47.28423
442.136	46.95133
442.582	46.56495
443.029	47.28843
443.475	46.94699
443.921	46.7048
444.368	46.72014
444.814	46.87804
445.26	47.82101
445.706	47.328
446.152	46.77614
446.598	46.96136
447.044	47.00394
447.49	46.92915
447.936	47.10654
448.381	46.67113
448.827	46.81616
449.273	47.54371
449.718	47.5597
450.164	46.82521
450.61	46.81716
451.055	46.79458
451.5	46.93687
451.946	47.44963
452.391	47.55136
452.836	47.35487
453.282	46.85304
453.727	46.9543
454.172	47.12848
454.617	46.71101
455.062	46.83742
455.507	47.15957
455.952	47.12874
456.396	47.2734
456.841	47.35194
457.286	47.80648
457.731	47.69728
458.175	47.68787
458.62	47.46593
459.064	47.47335
459.509	47.4923
459.953	47.66176
460.398	47.58196
460.842	47.95053
461.286	47.72236
461.73	48.05546
462.174	48.03926
462.619	48.41679
463.063	47.73155
463.507	47.95705
463.951	47.9465
464.394	48.35541
464.838	48.18475
465.282	48.24484
465.726	48.75645
466.17	48.53276
466.613	49.22843
467.057	48.9281
467.5	49.4506
467.944	49.65062
468.387	50.21784
468.831	50.0808
469.274	50.79102
469.717	50.82965
470.16	51.07928
470.603	50.94097
471.047	50.85953
471.49	51.38911
471.933	51.84447
472.376	51.8238
472.818	51.60968
473.261	51.9576
473.704	52.05374
474.147	52.57922
474.59	52.85573
475.032	53.21952
475.475	52.81653
475.917	53.19876
476.36	53.59889
476.802	54.45877
477.245	54.13444
477.687	54.78371
478.129	54.03766
478.571	54.4121
479.013	54.33656
479.456	54.52522
479.898	54.90492
480.34	55.05217
480.782	55.33696
481.224	55.90981
481.665	55.70125
482.107	56.26509
482.549	56.33676
482.991	56.63113
483.432	56.57762
483.874	57.11586
484.315	56.87639
484.757	57.22582
485.198	56.95861
485.64	57.40111
486.081	57.64523
486.522	57.42593
486.963	58.15751
487.405	57.93255
487.846	57.74054
488.287	58.53311
488.728	58.57765
489.169	58.6614
489.61	59.04032
490.05	58.81694
490.491	58.91293
490.932	59.00912
491.373	58.82539
491.813	59.19092
492.254	58.98806
492.694	59.28153
493.135	59.10718
493.575	59.47202
494.016	59.40572
494.456	59.68683
494.896	59.76128
495.336	60.21539
495.777	60.05478
496.217	60.45266
496.657	60.50078
497.097	60.61836
497.537	60.67604
497.977	60.77362
498.416	60.67058
498.856	61.47188
499.296	60.99794
499.736	61.15105
500.175	61.22516
500.615	61.30311
501.054	61.01741
501.494	62.18374
501.933	62.42722
502.373	62.19611
502.812	62.52723
503.251	63.49268
503.69	62.92763
504.129	63.42693
504.569	63.88782
505.008	63.53866
505.447	63.51344
505.886	64.62835
506.324	64.58238
506.763	64.47664
507.202	64.53108
507.641	65.04901
508.079	65.34573
508.518	65.86352
508.957	65.55267
509.395	65.78522
509.834	66.1027
510.272	66.32458
510.71	66.94028
511.149	66.71178
511.587	66.74185
512.025	67.06828
512.463	67.67167
512.901	67.84435
513.339	68.01683
513.777	68.1575
514.215	68.37722
514.653	69.29138
515.091	69.69826
515.529	69.40607
515.966	70.02527
516.404	70.41021
516.842	70.52084
517.279	70.61077
517.717	70.70538
518.154	71.19722
518.592	71.12395
519.029	71.38453
519.466	71.75948
519.904	71.7753
520.341	72.42411
520.778	72.52586
521.215	72.70118
521.652	73.23721
522.089	73.28735
522.526	73.23116
522.963	73.58593
523.399	73.65903
523.836	74.19743
524.273	74.75749
524.71	75.15216
525.146	75.60611
525.583	76.01237
526.019	76.21522
526.456	76.28263
526.892	76.48662
527.328	76.29733
527.765	76.02292
528.201	76.76471
528.637	76.79098
529.073	77.89001
529.509	77.44284
529.945	77.53429
530.381	77.57078
530.817	78.69539
531.253	78.38527
531.689	78.80788
532.124	78.72261
532.56	78.97369
532.996	79.83907
533.431	79.62581
533.867	80.41449
534.302	79.87281
534.738	79.52172
535.173	80.66481
535.608	80.43416
536.044	80.73812
536.479	80.86364
536.914	80.88487
537.349	80.93897
537.784	81.25405
538.219	80.93463
538.654	81.18323
539.089	81.06098
539.524	81.42739
539.959	81.13673
540.393	80.9634
540.828	81.79958
541.263	81.55807
541.697	81.77083
542.132	82.12395
542.566	82.23943
543.001	82.94637
543.435	81.91433
543.869	81.90078
544.303	82.47302
544.738	82.27591
545.172	82.06467
545.606	82.1614
546.04	82.05721
546.474	81.87792
546.908	81.98099
547.342	82.12621
547.775	82.20767
548.209	81.83697
548.643	81.32013
549.077	81.16664
549.51	81.89557
549.944	81.01098
550.377	80.84176
550.811	81.17608
551.244	81.0745
551.677	80.30407
552.111	81.00388
552.544	80.60668
552.977	80.87388
553.41	80.51732
553.843	80.51543
554.276	80.51568
554.709	80.20043
555.142	79.66163
555.575	79.75385
556.008	79.47014
556.44	79.23611
556.873	79.57347
557.306	79.08552
557.738	78.22875
558.171	77.66844
558.603	77.95209
559.036	77.47026
559.468	77.41518
559.9	77.86018
560.333	77.40756
560.765	76.55658
561.197	76.94581
561.629	76.78312
562.061	76.7262
562.493	75.99816
562.925	75.83637
563.357	74.9701
563.789	75.47895
564.22	74.98695
564.652	74.74041
565.084	75.09025
565.515	74.26622
565.947	73.83283
566.378	73.44943
566.81	73.02037
567.241	72.9996
567.672	72.62991
568.104	71.89797
568.535	71.91549
568.966	72.09552
569.397	71.52573
569.828	71.54194
570.259	71.50288
570.69	70.69873
571.121	69.97539
571.552	70.52687
571.983	70.00027
572.414	69.72938
572.844	69.26951
573.275	69.18573
573.705	69.44681
574.136	68.73227
574.566	68.85971
574.997	68.16103
575.427	68.14602
575.857	67.61011
576.288	67.92524
576.718	67.56667
577.148	67.24727
577.578	67.24899
578.008	66.98513
578.438	66.73663
578.868	65.92232
579.298	65.95037
579.728	65.78113
580.157	64.92085
580.587	64.76478
581.017	65.16488
581.446	64.14487
581.876	63.55542
582.305	63.64075
582.735	62.88229
583.164	62.6308
583.593	62.97246
584.023	62.62782
584.452	62.53533
584.881	62.46159
585.31	62.07736
585.739	62.12644
586.168	61.53925
586.597	61.88671
587.026	61.61993
587.455	61.08883
587.884	60.90885
588.312	60.47822
588.741	60.66233
589.17	60.15868
589.598	59.60031
590.027	59.37933
590.455	58.99693
590.884	59.19483
591.312	59.05023
591.74	58.20521
592.168	58.57034
592.597	57.9737
593.025	57.13739
593.453	57.25549
593.881	57.09007
594.309	56.69274
594.737	56.44752
595.165	55.89136
595.592	55.87176
596.02	56.15684
596.448	55.78514
596.875	55.95987
597.303	55.36942
597.73	54.7908
598.158	54.89725
598.585	54.92254
599.013	54.71235
599.44	54.75673
599.867	54.50281
600.294	54.42047
600.722	53.98086
601.149	53.87061
601.576	53.72388
602.003	53.88626
602.43	53.36674
602.856	53.09367
603.283	52.85413
603.71	52.67034
604.137	52.39111
604.563	52.41591
604.99	52.2804
605.416	51.55488
605.843	51.21078
606.269	51.38984
606.696	51.08297
607.122	51.23909
607.548	51.05367
607.975	50.74231
608.401	51.10695
608.827	51.12623
609.253	50.99772
609.679	50.59816
610.105	51.14448
610.531	50.16356
610.956	49.97371
611.382	49.6158
611.808	49.45583
612.234	49.72831
612.659	49.38898
613.085	49.40733
613.51	49.08817
613.936	49.31133
614.361	49.04495
614.786	49.35937
615.212	48.751
615.637	48.84185
616.062	48.94108
616.487	48.81739
616.912	48.82233
617.337	48.35881
617.762	48.44322
618.187	47.84528
618.612	47.68014
619.037	48.06614
619.461	47.63527
619.886	47.51196
620.311	47.91034
620.735	47.68716
621.16	47.73372
621.584	47.37239
622.008	47.85391
622.433	48.15497
622.857	47.52717
623.281	47.7202
623.705	47.62222
624.13	47.31437
624.554	46.95801
624.978	47.21798
625.402	47.22758
625.826	47.29242
626.249	47.5505
626.673	47.43789
627.097	47.68075
627.521	46.98198
627.944	47.5638
628.368	47.41258
628.791	47.66231
629.215	47.43908
629.638	47.91586
630.061	47.45843
630.485	48.25398
630.908	47.94276
631.331	47.89162
631.754	48.14675
632.177	47.7798
632.6	47.83266
633.023	47.5599
633.446	47.93907
633.869	48.02154
634.292	47.68406
634.715	47.89404
635.137	48.72272
635.56	48.22254
635.982	48.44171
636.405	48.58535
636.827	48.29012
637.25	49.38944
637.672	48.71687
638.094	49.24371
638.517	48.9774
638.939	49.38949
639.361	48.95463
639.783	49.31525
640.205	49.52325
640.627	49.64161
641.049	49.91549
641.471	49.94175
641.893	50.08328
642.314	50.36225
642.736	50.48341
643.158	50.64382
643.579	50.90168
644.001	50.79986
644.422	51.08485
644.844	50.99271
645.265	51.27246
645.686	50.97623
646.107	51.40007
646.529	51.67893
646.95	51.37132
647.371	51.73248
647.792	51.62803
648.213	51.85987
648.634	52.13689
649.055	52.43463
649.475	52.74473
649.896	52.66791
650.317	52.89377
650.737	54.11528
651.158	54.19652
651.578	54.11697
651.999	54.46127
652.419	54.68943
652.84	54.38249
653.26	54.60092
653.68	55.32577
654.1	55.23342
654.521	55.22807
654.941	54.59565
655.361	55.71255
655.781	55.78093
656.2	56.11184
656.62	56.04809
657.04	56.62436
657.46	56.91609
657.879	57.23696
658.299	56.79047
658.719	56.99429
659.138	57.70713
659.558	57.82598
659.977	57.97188
660.396	57.591
660.816	58.10251
661.235	57.72693
661.654	58.0499
662.073	58.65925
662.492	59.10154
662.911	59.71965
663.33	59.53559
663.749	59.73347
664.168	60.39896
664.587	59.15163
665.006	60.17571
665.424	60.93925
665.843	60.3132
666.261	60.26937
666.68	60.59666
667.098	60.80432
667.517	60.92046
667.935	61.16305
668.353	62.0859
668.772	61.14648
669.19	61.52733
669.608	61.81398
670.026	62.02891
670.444	61.84946
670.862	62.04894
671.28	62.33867
671.698	61.8492
672.115	62.37829
672.533	62.53542
672.951	62.42491
673.368	62.25921
673.786	62.31028
674.203	62.04313
674.621	62.59942
675.038	62.5664
675.456	62.9142
675.873	61.96174
676.29	62.49511
676.707	62.80849
677.124	61.95187
677.541	62.80457
677.958	62.04687
678.375	62.66283
678.792	61.88408
679.209	61.85892
679.626	62.50402
680.043	62.27488
680.459	62.72996
680.876	62.53663
681.292	62.58136
681.709	63.59741
682.125	62.7074
682.542	63.09817
682.958	62.14299
683.374	63.03603
683.79	62.21357
684.207	62.69347
684.623	62.37328
685.039	62.08317
685.455	62.89916
685.871	62.57134
686.286	62.04837
686.702	61.50507
687.118	62.00038
687.534	61.4729
687.949	61.6131
688.365	61.49601
688.781	60.77422
689.196	61.43415
689.611	60.79424
690.027	61.42886
690.442	60.04404
690.857	60.0709
691.273	59.9928
691.688	59.79655
692.103	59.89099
692.518	59.4416
692.933	60.09328
693.348	59.50196
693.763	59.54637
694.177	59.02186
694.592	59.0835
695.007	58.82278
695.421	58.37677
695.836	58.12438
696.25	57.55634
696.665	57.44634
697.079	57.04689
697.494	57.51911
697.908	56.75956
698.322	57.19978
698.736	56.59692
699.151	56.09313
699.565	56.00934
699.979	55.95243
700.393	55.82775
700.806	55.30761
701.22	55.03254
701.634	54.89285
702.048	55.12908
702.461	53.98975
702.875	54.37083
703.289	53.36637
703.702	53.91175
704.116	53.79563
704.529	53.53238
704.942	52.99896
705.356	53.1537
705.769	52.82886
706.182	52.19372
706.595	52.02694
707.008	51.12985
707.421	51.65943
707.834	50.56724
708.247	50.97068
708.66	50.30443
709.072	50.85024
709.485	49.89621
709.898	50.06709
710.31	48.9517
710.723	49.01401
711.135	48.13164
711.548	48.73235
711.96	48.02678
712.373	48.21872
712.785	47.36178
713.197	47.55421
713.609	46.98078
714.021	46.99794
714.433	46.06989
714.845	46.35394
715.257	45.74507
715.669	45.14748
716.081	44.81568
716.493	44.84499
716.904	44.45979
717.316	43.93984
717.727	44.00234
718.139	43.68119
718.55	43.53661
718.962	42.76669
719.373	43.07278
719.784	42.45559
720.196	42.50775
720.607	42.36809
721.018	42.00796
721.429	41.04717
721.84	41.78513
722.251	40.63037
722.662	40.90287
723.073	39.71803
723.483	40.28944
723.894	39.17865
724.305	39.62054
724.715	39.0859
725.126	38.91634
725.536	38.2362
725.947	38.57823
726.357	37.86488
726.768	38.18458
727.178	37.50586
727.588	37.74211
727.998	37.03526
728.408	37.06982
728.818	36.29049
729.228	36.86128
729.638	36.43845
730.048	36.18137
730.458	35.72345
730.868	35.83699
731.277	35.25944
731.687	35.3544
732.097	35.05903
732.506	34.90599
732.916	35.17705
733.325	34.81703
733.734	34.27064
734.144	34.2672
734.553	34.07751
734.962	33.28306
735.371	33.88097
735.78	33.0165
736.189	33.53637
736.598	32.82632
737.007	32.84289
737.416	31.87148
737.825	32.63436
738.233	31.63704
738.642	32.27737
739.051	31.8463
739.459	32.48052
739.868	31.56747
740.276	31.78824
740.684	30.93541
741.093	31.91379
741.501	31.14271
741.909	31.20005
742.317	30.87826
742.725	30.77417
743.133	30.68468
743.541	30.17285
743.949	30.48442
744.357	30.23769
744.765	30.51994
745.173	29.5065
745.58	30.44029
745.988	29.04144
746.396	29.91488
746.803	28.78989
747.211	29.67932
747.618	28.96363
748.025	29.23492
748.433	28.61457
748.84	28.81962
749.247	28.67841
749.654	28.04969
750.061	28.35973
750.468	27.96465
750.875	28.41475
751.282	27.7328
751.689	28.57333
752.096	27.4992
752.502	28.04335
752.909	27.13919
753.316	27.92519
753.722	27.69691
754.129	27.26222
754.535	27.76865
754.941	27.67012
755.348	27.78244
755.754	26.71859
756.16	27.86347
756.566	26.9444
756.972	27.62217
757.378	26.7852
757.784	27.12839
758.19	26.79601
758.596	26.42574
759.002	26.80416
759.408	26.69072
759.813	27.03989
760.219	26.41194
760.624	27.09842
761.03	26.57349
761.435	26.33557
761.841	25.5449
762.246	26.04119
762.651	26.23531
763.057	25.94053
763.462	26.65057
763.867	26.18519
764.272	26.99901
764.677	26.65095
765.082	26.73367
765.487	26.45851
765.892	26.58329
766.296	26.41681
766.701	26.14241
767.106	26.40673
767.51	25.6974
767.915	26.61535
768.319	25.736
768.724	25.9766
769.128	25.9166
769.532	25.23348
769.936	26.16203
770.341	25.49694
770.745	25.99976
771.149	24.84829
771.553	25.5284
771.957	25.38502
772.361	25.82931
772.764	26.00965
773.168	24.9673
773.572	25.98736
773.976	24.79099
774.379	25.40404
774.783	25.10996
775.186	25.22763
775.59	24.96583
775.993	24.78185
776.396	25.91807
776.8	24.93053
777.203	25.6116
777.606	25.25473
778.009	25.34279
778.412	25.23544
778.815	24.7478
779.218	25.28602
779.621	24.63756
780.023	25.66399
780.426	25.46214
780.829	25.2491
781.231	25.4738
781.634	25.20059
782.036	25.87115
782.439	25.21732
782.841	25.31819
783.244	24.89634
783.646	25.0532
784.048	25.77124
784.45	24.87337
784.852	25.33307
785.254	25.27627
785.656	25.31867
786.058	25.48093
786.46	24.91826
786.862	25.18651
787.264	24.8462
787.665	25.24007
788.067	25.23863
788.468	25.26361
788.87	25.09347
789.271	24.66469
789.673	25.68734
790.074	25.19688
790.475	24.96856
790.877	25.65884
791.278	24.82222
791.679	25.35114
792.08	25.09767
792.481	25.57603
792.882	25.41204
793.283	25.18694
793.683	25.56137
794.084	25.04588
794.485	25.2217
794.886	25.15048
795.286	25.26471
795.687	25.5791
796.087	24.86993
796.487	25.60472
796.888	25.64218
797.288	24.98278
797.688	25.19552
798.088	24.91422
798.489	25.31706
798.889	25.0945
799.289	25.25535
799.689	25.36199
800.088	25.21412
800.488	25.44596
800.888	25.32998
801.288	25.00431
801.687	25.9609
802.087	25.29172
802.486	25.78764
802.886	25.45925
803.285	25.28911
803.685	26.7483
804.084	25.70145
804.483	25.73143
804.882	25.94469
805.281	25.13763
805.68	25.80533
806.079	25.39834
806.478	26.04047
806.877	25.97799
807.276	25.591
807.675	26.11963
808.074	26.05801
808.472	25.51255
808.871	25.84339
809.269	25.28518
809.668	26.38254
810.066	26.00484
810.465	25.83845
810.863	26.13211
811.261	25.81055
811.659	26.39067
812.057	25.98996
812.455	26.16521
812.853	26.05294
813.251	26.1496
813.649	26.0215
814.047	26.22448
814.445	25.74198
814.843	26.3064
815.24	25.7162
815.638	25.71094
816.035	26.14741
816.433	25.6546
816.83	25.79358
817.228	26.3755
817.625	25.52346
818.022	26.52031
818.419	26.06527
818.816	25.60242
819.213	26.39926
819.61	25.81489
820.007	26.26239
820.404	26.4444
820.801	26.5109
821.198	27.32242
821.595	26.47221
821.991	27.03925
822.388	27.64733
822.784	27.25412
823.181	27.88776
823.577	28.04384
823.974	27.90697
824.37	28.17911
824.766	27.85339
825.162	27.59323
825.558	27.74923
825.954	27.01743
826.35	27.6697
826.746	27.75478
827.142	27.41095
827.538	28.01654
827.934	27.77672
828.33	27.61985
828.725	28.09196
829.121	27.39735
829.516	27.65342
829.912	27.41707
830.307	27.18991
830.703	27.27524
831.098	26.76694
831.493	26.64514
831.888	27.12884
832.283	26.5864
832.678	26.82357
833.073	27.54427
833.468	27.35501
833.863	27.38592
834.258	28.04009
834.653	27.74299
835.048	27.56249
835.442	27.91251
835.837	27.16062
836.231	27.33497
836.626	27.66865
837.02	27.31558
837.415	27.49508
837.809	27.41138
838.203	27.32468
838.597	27.29428
838.991	25.96436
839.385	27.41352
839.779	27.51993
840.173	27.43613
840.567	27.24973
840.961	27.44136
841.355	27.60982
841.748	27.74774
842.142	27.38021
842.536	27.31854
842.929	27.98755
843.323	27.05842
843.716	27.34592
844.109	27.91209
844.503	27.7733
844.896	27.70959
845.289	27.51393
845.682	27.80146
846.075	27.83228
846.468	27.8646
846.861	27.29248
847.254	27.84129
847.647	27.74852
848.04	26.85759
848.432	27.18286
848.825	27.10825
849.217	27.24287
849.61	28.0872
850.002	27.80851
850.395	27.46711
850.787	28.3791
851.179	27.30182
851.572	27.56013
851.964	27.77322
852.356	27.7182
852.748	27.92973
853.14	27.65766
853.532	27.28068
853.924	27.77713
854.315	27.83971
854.707	27.39018
855.099	27.25014
855.491	28.34094
855.882	26.24074
856.274	27.96415
856.665	27.88785
857.056	27.827
857.448	27.24386
857.839	27.99042
858.23	26.44363
858.621	27.98353
859.012	27.16928
859.403	26.56219
859.794	28.36235
860.185	27.08384
860.576	27.27762
860.967	28.15251
861.358	26.9027
861.748	27.21588
862.139	27.0091
862.529	27.08567
862.92	26.93927
863.31	27.89189
863.701	27.13313
864.091	26.37296
864.481	27.50811
864.872	27.78204
865.262	26.84205
865.652	27.56036
866.042	27.01344
866.432	26.84587
866.822	27.51941
867.211	27.41164
867.601	27.29368
867.991	27.4317
868.381	27.47635
868.77	26.77693
869.16	27.75901
869.549	27.10495
869.939	26.87882
870.328	28.09171
870.717	27.19418
871.106	26.82105
871.496	27.82207
871.885	27.6449
872.274	27.49913
872.663	27.90919
873.052	28.01556
873.441	27.1311
873.829	27.72125
874.218	27.8398
874.607	27.01482
874.996	27.38302
875.384	26.76985
875.773	26.70502
876.161	26.98237
876.549	26.96759
876.938	26.75729
877.326	26.91572
877.714	27.44346
878.102	26.80124
878.491	26.92229
878.879	27.40254
879.267	26.75614
879.655	27.03609
880.042	27.69666
880.43	27.16408
880.818	27.64638
881.206	27.88458
881.593	27.78398
881.981	27.65989
882.368	28.19433
882.756	28.16491
883.143	27.6709
883.53	27.85925
883.918	27.76082
884.305	27.3919
884.692	27.88181
885.079	27.39129
885.466	27.02408
885.853	27.06395
886.24	27.48818
886.627	27.48051
887.014	27.41989
887.4	26.85498
887.787	26.53167
888.174	26.29552
888.56	27.00838
888.947	26.72797
889.333	26.34027
889.719	27.29312
890.106	27.19162
890.492	26.3799
890.878	26.81719
891.264	26.64624
891.65	26.49408
892.036	26.74984
892.422	27.01607
892.808	26.48917
893.194	26.27851
893.58	26.80539
893.965	26.15085
894.351	26.34391
894.736	26.70384
895.122	27.31848
895.507	27.055
895.893	26.66826
896.278	27.01576
896.663	26.78195
897.049	26.96471
897.434	27.097
897.819	26.60684
898.204	27.34442
898.589	27.08981
898.974	26.61023
899.359	26.52869
899.743	26.9589
900.128	27.7471
900.513	26.87186
900.897	27.5447
901.282	26.77484
901.667	26.02041
902.051	26.48896
902.435	26.75842
902.82	25.78422
903.204	25.74502
903.588	26.88399
903.972	26.94229
904.356	26.99628
904.74	27.16254
905.124	27.23392
905.508	26.60308
905.892	27.08027
906.276	27.21231
906.659	26.81798
907.043	26.83698
907.427	27.13616
907.81	27.58901
908.194	26.86273
908.577	26.49076
908.96	27.47164
909.344	27.40541
909.727	26.04198
910.11	27.23058
910.493	26.33205
910.876	26.15382
911.259	26.19946
911.642	26.28522
912.025	25.28608
912.408	26.3054
912.79	26.17622
913.173	25.84103
913.556	25.3784
913.938	26.38721
914.321	25.88542
914.703	25.60849
915.086	26.67218
915.468	26.84015
915.85	26.20821
916.232	26.30351
916.614	26.83206
916.996	26.57118
917.378	26.0922
917.76	26.61258
918.142	26.83502
918.524	25.63808
918.906	26.43001
919.288	26.41744
919.669	26.63137
920.051	26.40657
920.432	26.34487
920.814	25.48636
921.195	25.34399
921.577	26.17833
921.958	26.94614
922.339	25.61528
922.72	25.94625
923.101	25.8368
923.482	26.22181
923.863	25.07114
924.244	26.34495
924.625	25.71107
925.006	25.96476
925.387	25.38206
925.767	25.53112
926.148	26.38633
926.528	24.87627
926.909	25.68725
927.289	26.33748
927.67	24.71316
928.05	25.20891
928.43	25.75178
928.81	25.9337
929.191	25.40468
929.571	24.28391
929.951	25.12143
930.331	24.84593
930.71	24.99737
931.09	25.33934
931.47	25.89612
931.85	25.52333
932.229	25.4286
932.609	24.58101
932.988	25.12347
933.368	25.21133
933.747	25.26704
934.127	25.44706
934.506	24.95287
934.885	24.8062
935.264	24.33956
935.643	25.83068
936.022	23.88767
936.401	24.98238
936.78	25.28568
937.159	24.56978
937.538	23.6258
937.916	23.97913
938.295	24.22925
938.674	24.79566
939.052	24.22684
939.431	25.55016
939.809	23.94451
940.187	23.99894
940.566	23.94784
940.944	25.25755
941.322	25.59534
941.7	23.74139
942.078	25.13524
942.456	24.73487
942.834	25.05608
943.212	22.07425
943.59	24.0273
943.968	24.18017
944.345	23.69628
944.723	23.29316
945.1	22.76191
945.478	23.37965
945.855	23.15546
946.233	22.1064
946.61	23.25828
946.987	22.29349
947.365	23.17118
947.742	22.51332
948.119	25.02931
948.496	22.19251
948.873	21.16761
949.25	23.03039
949.626	23.0743
950.003	23.19384
950.38	22.23361
950.756	25.52888
951.133	22.03523
951.51	22.84022
951.886	23.04382
952.262	23.64657
952.639	23.40676
953.015	23.13124
953.391	22.85837
953.767	22.8558
954.143	21.48634
954.519	23.28709
954.895	23.63663
955.271	22.39291
955.647	22.0198
956.023	21.83205
956.399	21.23986
956.774	23.33249
957.15	24.02782
957.525	22.88608
957.901	23.25058
958.276	22.98042
958.652	21.15367
959.027	25.10445
959.402	22.34498
959.777	23.42323
960.152	22.00365
960.527	21.62252
960.902	21.28337
961.277	23.19169
961.652	22.1683
962.027	19.15626
962.402	23.34562
962.776	23.64647
963.151	20.67795
963.525	23.81791
963.9	19.91569
964.274	20.43536
964.649	21.63477
965.023	18.95458
965.397	21.25497
965.771	21.33453
966.146	20.30153
966.52	21.40357
966.894	22.54128
967.268	21.3017
967.641	20.34849
968.015	19.43866
968.389	22.04315
968.763	21.79121
969.136	21.956
969.51	21.20095
969.883	21.64187
970.257	22.5147
970.63	21.38528
971.003	20.98077
971.377	24.66442
971.75	20.73573
972.123	22.73069
972.496	21.32097
972.869	22.11075
973.242	21.3441
973.615	20.02587
973.988	22.41288
974.36	21.24396
974.733	20.54044
975.106	21.24179
975.478	21.29796
975.851	21.80398
976.223	20.38616
976.596	20.41311
976.968	21.33188
977.34	22.24658
977.712	22.00376
978.085	21.05647
978.457	23.04267
978.829	21.56504
979.201	22.95826
979.573	20.96067
979.944	22.51261
980.316	20.36841
980.688	21.74218
981.059	20.03153
981.431	21.33937
981.803	21.09404
982.174	21.9577
982.545	19.59138
982.917	21.95018
983.288	19.13158
983.659	18.95525
984.03	21.95757
984.401	21.04468
984.772	21.93248
985.143	20.57063
985.514	19.75293
985.885	20.95498
986.256	21.13678
986.627	21.16474
986.997	20.79127
987.368	20.58376
987.738	20.20653
988.109	20.23192
988.479	22.44231
988.85	19.7401
989.22	20.50653
989.59	20.50006
989.96	21.51957
990.33	20.6222
990.7	21.2054
991.07	21.27593
991.44	19.91114
991.81	19.65872
992.18	20.31103
992.549	20.72964
992.919	21.2731
993.289	20.44974
993.658	20.07933
994.028	22.20807
994.397	20.00238
994.766	21.07112
995.136	21.44623
995.505	20.36958
995.874	20.90586
996.243	20.10808
996.612	21.45791
996.981	21.48323
997.35	21.03147
997.719	22.36824
998.088	18.98143
998.456	22.29661
998.825	19.5964
999.194	21.93899
999.562	17.33798
999.931	20.05525
1000.299	13.95169
1000.667	16.2233
1001.036	17.60328
1001.404	18.12406
1001.772	16.22467
1002.14	18.32718
1002.508	19.39917
1002.876	16.42403
1003.244	20.1529
1003.612	17.24008
1003.98	14.82824
1004.347	16.17245
1004.715	18.50982
1005.083	18.90256
1005.45	17.9894
1005.818	12.96053
1006.185	15.11895
1006.552	17.48435
1006.92	18.33198
1007.287	18.6175
1007.654	11.07537
1008.021	14.56734
1008.388	16.19164
1008.755	17.33734
1009.122	12.13668
1009.489	18.24679
1009.856	17.06691
1010.222	17.66829
1010.589	14.93969
1010.956	20.67715
1011.322	17.44624
1011.689	16.29779
1012.055	13.56602
1012.421	11.15003
1012.788	16.66411
1013.154	18.60434
1013.52	17.74043
1013.886	12.58393
1014.252	11.13806
1014.618	13.80402
1014.984	12.02593
1015.35	17.49653
1015.716	13.46406
1016.081	13.26433
1016.447	15.57982
1016.813	12.1474
1017.178	10.32047
1017.544	15.69186
1017.909	17.20907
1018.274	12.59719
1018.64	13.13344
1019.005	16.48066
1019.37	17.79005
1019.735	11.369
1020.1	7.57798
1020.465	12.83507
1020.83	12.00389
1021.195	1.06735
1021.56	11.37582
1021.924	11.49011
1022.289	16.02098
1022.654	7.04935
1023.018	6.5335
1023.383	8.27006
1023.747	9.21061
1024.111	13.8609
1024.476	6.47507
1024.84	10.58743
1025.204	9.24682
1025.568	6.67245
1025.932	13.80742
1026.296	13.6325
1026.66	4.49486
1027.024	11.01098
1027.387	4.12991
1027.751	9.12295
1028.115	6.39108
1028.478	5.51648
1028.842	-2.09122
1029.205	2.89285
1029.569	12.01547
1029.932	3.50183
1030.295	11.02466
1030.659	9.89824
1031.022	6.45536
1031.385	-1.25214
1031.748	7.17156
1032.111	-2.09264
1032.474	4.85578
1032.836	-11.68713
1033.199	4.68001
1033.562	-16.50635
1033.924	4.98333
1034.287	4.43011
1034.65	1.19325
1035.012	6.49965
1035.374	-2.56962
1035.737	-3.59253
1036.099	2.17934
1036.461	-8.51905
1036.823	4.03482
1037.185	-0.28799
1037.547	-4.38584
1037.909	-6.36526
1038.271	-8.99096
1038.633	-6.63937
1038.995	7.63702
1039.356	-17.91897
1039.718	-4.79437
1040.08	4.2682
1040.441	1.52014
1040.803	5.65759
1041.164	-0.35951
1041.525	4.45871
1041.886	-0.76589
1042.248	2.3426
1042.609	4.60263
1042.97	-5.87985
1043.331	4.11147
1043.692	-7.05919
1044.053	-1.92227
1044.413	-10.95366
1044.774	-0.79012
1045.135	-7.47325
1045.495	-11.30675
1045.856	-5.55347
1046.216	-28.46961
1046.577	-1.6123
1046.937	3.52271
1047.298	1.20443
