Data from 1014water-6_Reflection__1__23-48-49-905.txt Node

Date: Tue Oct 14 23:48:49 AST 2025
User: lin
Spectrometer: SR600411
Trigger mode: 0
Integration Time (sec): 5.910000E-2
Scans to average: 5
Nonlinearity correction enabled: true
Boxcar width: 0
Storing dark spectrum: false
XAxis mode: Wavelengths
Number of Pixels in Spectrum: 2048
>>>>>Begin Spectral Data<<<<<
187.982	50.20703
188.456	40.72787
188.93	52.1443
189.403	53.16928
189.877	44.4326
190.351	23.85984
190.825	34.69991
191.298	31.56923
191.772	33.75603
192.246	30.14178
192.719	25.87591
193.193	48.58756
193.666	26.68829
194.139	30.89146
194.613	51.79495
195.086	36.85357
195.559	42.4689
196.033	45.21489
196.506	58.18294
196.979	55.88157
197.452	50.87122
197.925	43.4249
198.398	59.01434
198.871	50.26168
199.344	49.79278
199.816	41.18574
200.289	41.07294
200.762	29.94493
201.235	41.50712
201.707	24.5448
202.18	22.57529
202.652	27.96634
203.125	25.15132
203.597	25.94923
204.07	31.87815
204.542	36.53369
205.014	19.84866
205.486	33.79654
205.959	21.65079
206.431	1.88641
206.903	32.13803
207.375	18.39629
207.847	31.75742
208.319	27.81427
208.791	-39.27664
209.263	13.17538
209.734	19.99589
210.206	-69.84591
210.678	25.35716
211.15	3.99924
211.621	53.40477
212.093	31.29215
212.564	-41.9282
213.036	-7.14137
213.507	20.92601
213.979	-4.6286
214.45	-12.35711
214.921	29.74707
215.392	-8.47243
215.864	9.781
216.335	13.48109
216.806	-51.50498
217.277	39.78054
217.748	8.98732
218.219	14.56057
218.69	-57.13416
219.161	-25.96905
219.631	-14.11494
220.102	26.53696
220.573	6.09663
221.043	-39.35152
221.514	11.76227
221.985	-31.87833
222.455	-8.12795
222.926	10.25499
223.396	-38.19296
223.866	-17.06993
224.337	38.73353
224.807	-13.79041
225.277	-15.18715
225.747	48.34715
226.217	-21.54572
226.687	-2.38055
227.157	0.9899
227.627	-7.82417
228.097	12.6565
228.567	46.7237
229.037	-26.03544
229.507	4.94955
229.977	14.12823
230.446	1.99981
230.916	26.71965
231.386	-52.92759
231.855	-24.52511
232.325	11.86319
232.794	-32.91975
233.263	13.12908
233.733	33.8404
234.202	-41.01672
234.671	5.74619
235.14	-38.02081
235.61	-13.43082
236.079	-6.81692
236.548	-10.60453
237.017	20.87615
237.486	-33.86542
237.955	-17.23906
238.424	-21.42209
238.892	7.79111
239.361	-15.49045
239.83	-3.48776
240.299	-0.81947
240.767	-130.92729
241.236	-36.77295
241.704	-68.40376
242.173	-28.94176
242.641	-45.44592
243.109	8.40155
243.578	-29.22592
244.046	6.24926
244.514	23.28509
244.982	-32.3022
245.451	-49.99229
245.919	22.51869
246.387	-78.55588
246.855	-12.93872
247.323	-5.81291
247.791	-0.91723
248.258	-35.47503
248.726	-66.65351
249.194	-42.84953
249.662	-36.91658
250.129	-18.6009
250.597	-20.2667
251.064	24.41547
251.532	-61.09711
251.999	-34.68935
252.467	-59.14174
252.934	-30.64026
253.401	-71.21534
253.869	-21.24592
254.336	17.20168
254.803	-49.11457
255.27	12.76389
255.737	-36.75795
256.204	18.30776
256.671	-71.41333
257.138	6.81708
257.605	-57.99094
258.072	-63.49834
258.539	-50.71421
259.005	11.24842
259.472	-33.32727
259.939	17.6451
260.405	0
260.872	-90.88268
261.338	-47.05185
261.805	2.67799
262.271	-106.36259
262.737	25.71032
263.203	-13.15454
263.67	-49.99259
264.136	-2.75168
264.602	-12.93872
265.068	-179.96017
265.534	14.58215
266	-113.93276
266.466	-46.9607
266.932	4.76153
267.398	-49.22133
267.864	-27.39223
268.329	19.0457
268.795	-172.3869
269.261	7.24546
269.726	-53.83551
270.192	-33.74286
270.657	7.9356
271.123	-5.82399
271.588	16.32521
272.053	17.28166
272.519	-17.38852
272.984	-56.88632
273.449	-28.56939
273.914	-28.25428
274.379	-19.53621
274.844	23.28509
275.309	-35.70758
275.774	-36.16564
276.239	18.43553
276.704	2.12727
277.169	-11.95409
277.634	50.59831
278.098	4.49363
278.563	-58.8141
279.028	0
279.492	-82.2089
279.957	40.98069
280.421	30.23077
280.886	-22.9944
281.35	-8.2338
281.814	-16.8021
282.279	-35.3581
282.743	29.6988
283.207	-102.6875
283.671	-13.43082
284.135	19.44221
284.599	-8.33226
285.063	-32.78164
285.527	-36.75795
285.991	-49.99318
286.455	-96.4076
286.919	-103.83528
287.382	-7.35188
287.846	-7.69103
288.31	45.74007
288.773	-108.80825
289.237	-56.23888
289.7	-19.39992
290.164	-58.8906
290.627	-24.1345
291.09	-9.99826
291.554	-59.31102
292.017	-80.76174
292.48	3.9468
292.943	-37.77315
293.406	-30.7651
293.869	5.82413
294.332	-65.29567
294.795	-19.50842
295.258	-55.21255
295.721	-89.56723
296.184	-37.24974
296.646	-40.97664
297.109	7.21521
297.572	-257.11744
298.034	-6.66561
298.497	-76.58319
298.959	-1866.44899
299.422	-63.03413
299.884	-39.5302
300.346	-37.99482
300.809	-108.09167
301.271	23.07419
301.733	-36.97899
302.195	-57.13293
302.657	4.16591
303.119	-20.7754
303.581	-229.58928
304.043	-9.7207
304.505	3.02973
304.967	-34.60821
305.429	14.56057
305.891	-35.2877
306.352	22.5785
306.814	19.75055
307.275	31.8811
307.737	31.5757
308.198	29.86694
308.66	-42.41637
309.121	-2.7023
309.583	-15.38325
310.044	-165.49204
310.505	7.82445
310.966	-105.0596
311.428	29.8222
311.889	-19.99691
312.35	-8.2179
312.811	-245.41768
313.272	-35.89368
313.733	3.15732
314.193	1154.52671
314.654	-39.99281
315.115	-164.06915
315.576	-63.25531
316.036	-36.91659
316.497	-154.52836
316.957	-342.83614
317.418	-104.53615
317.878	-48.97253
318.339	39.99834
318.799	2.43864
319.259	-3.57081
319.72	-1.2498
320.18	-15.25219
320.64	-6.66625
321.1	51.84919
321.56	-37.92504
322.02	-34.68935
322.48	7.86389
322.94	-76.91608
323.4	0
323.86	3.57086
324.319	-481.75728
324.779	-2.27232
325.239	-52.16308
325.698	14.11561
326.158	12.76492
326.617	-15.78742
327.077	-69.03793
327.536	-68.17185
327.996	17.71924
328.455	-61.23439
328.914	-1.88659
329.373	6.05986
329.832	1.1626
330.292	-16.12559
330.751	-22.05521
331.21	-92.48594
331.668	-29.15952
332.127	-3.63554
332.586	0
333.045	28.25718
333.504	-140.3942
333.962	-47.75186
334.421	-186.65079
334.88	-112.74369
335.338	-52.07582
335.797	8.21809
336.255	-79.34734
336.714	-6.18431
337.172	16.23617
337.63	-118.3423
338.088	-10.18279
338.547	-31.74083
339.005	-33.72754
339.463	34.25446
339.921	-16.41538
340.379	-30.60837
340.837	-16.66367
341.295	-54.37651
341.753	-79.98437
342.21	-61.80731
342.668	-45.60654
343.126	19.99779
343.584	3.61389
344.041	-31.45341
344.499	-26.91782
344.956	24.52636
345.414	11.70945
345.871	-93.3173
346.328	-75.74023
346.786	-21.42569
347.243	3.99962
347.7	-60.30544
348.157	0
348.614	11.42717
349.071	-25.67095
349.528	-1866.44884
349.985	0
350.442	-55.37357
350.899	8.69457
351.356	-6.66561
351.812	-12.90055
352.269	-1.0099
352.726	-17.49838
353.182	-18.67733
353.639	-2.38055
354.095	-2.597
354.552	-48.51973
355.008	-54.22755
355.465	-30.42938
355.921	-11.36143
356.377	56.66231
356.833	-28.16395
357.289	2.40925
357.745	-35.8607
358.201	4.1661
358.657	8.07935
359.113	13.99762
359.569	-1.05243
360.025	21.0836
360.481	21.29273
360.937	5.95145
361.392	52.07623
361.848	38.39417
362.303	-18.17622
362.759	34.8575
363.214	25.6552
363.67	17.70281
364.125	17.18836
364.581	32.6882
365.036	46.11045
365.491	21.9688
365.946	40.64634
366.401	50.97186
366.856	52.01795
367.311	23.60805
367.766	46.41074
368.221	41.71678
368.676	41.11458
369.131	49.39352
369.586	42.80393
370.041	48.9494
370.495	42.00416
370.95	48.40612
371.404	53.00967
371.859	46.80925
372.313	48.66247
372.768	53.01002
373.222	50.71478
373.676	49.07898
374.131	50.65538
374.585	48.6054
375.039	50.5678
375.493	51.80317
375.947	54.95414
376.401	56.25761
376.855	57.83264
377.309	55.07483
377.763	55.09475
378.217	54.62386
378.67	54.98155
379.124	52.39286
379.578	54.55133
380.031	57.54443
380.485	55.32044
380.938	54.28739
381.392	54.00056
381.845	53.12841
382.299	55.27972
382.752	59.26889
383.205	55.24424
383.658	55.38387
384.111	55.98276
384.564	55.00423
385.018	55.79959
385.471	57.62398
385.923	55.59124
386.376	56.52524
386.829	57.0045
387.282	56.3708
387.735	56.48992
388.187	56.95804
388.64	57.84329
389.093	57.19854
389.545	58.59677
389.998	57.36252
390.45	57.31816
390.902	57.54247
391.355	58.18049
391.807	59.31145
392.259	58.12672
392.711	58.55077
393.163	58.06392
393.615	57.45914
394.068	58.46698
394.519	57.58575
394.971	57.89541
395.423	57.70635
395.875	58.83256
396.327	57.84761
396.779	57.83892
397.23	57.84905
397.682	58.24084
398.133	57.83458
398.585	57.78587
399.036	58.55379
399.488	58.34184
399.939	57.14833
400.39	57.10491
400.842	56.96823
401.293	57.36845
401.744	57.48412
402.195	57.63474
402.646	57.00267
403.097	58.17944
403.548	57.1687
403.999	57.28883
404.45	57.137
404.9	56.82056
405.351	56.74582
405.802	56.39555
406.253	56.40328
406.703	56.52499
407.154	56.3312
407.604	56.60418
408.055	56.40689
408.505	56.36346
408.955	55.94211
409.406	55.93992
409.856	55.856
410.306	55.16974
410.756	54.73341
411.206	55.59077
411.656	55.05137
412.106	55.14971
412.556	54.15693
413.006	54.17885
413.456	54.18562
413.905	53.27702
414.355	54.0061
414.805	54.17027
415.254	54.71508
415.704	53.58784
416.153	53.86185
416.603	53.69149
417.052	52.85741
417.502	52.84146
417.951	52.28227
418.4	52.35827
418.849	52.15298
419.298	51.97515
419.748	52.2637
420.197	52.4457
420.646	51.85775
421.094	51.88815
421.543	51.42182
421.992	51.46887
422.441	51.15073
422.89	51.02221
423.338	51.03691
423.787	51.52016
424.236	50.19299
424.684	51.01547
425.133	50.7999
425.581	50.45633
426.029	49.85574
426.478	50.20479
426.926	49.78434
427.374	49.52392
427.822	49.49085
428.27	50.02153
428.718	49.39298
429.166	49.42995
429.614	49.46254
430.062	48.7814
430.51	48.49984
430.958	49.09009
431.406	48.472
431.853	48.53599
432.301	48.78826
432.749	48.43768
433.196	48.74078
433.644	48.56462
434.091	48.22107
434.538	47.93529
434.986	47.78618
435.433	47.56604
435.88	47.50497
436.327	47.53481
436.775	47.98055
437.222	47.99871
437.669	47.71097
438.116	47.65132
438.563	47.63816
439.009	47.78239
439.456	47.54441
439.903	47.80069
440.35	47.35819
440.796	47.56751
441.243	47.60937
441.689	47.45806
442.136	47.63185
442.582	46.82521
443.029	47.85975
443.475	47.25638
443.921	47.18102
444.368	47.40235
444.814	47.03354
445.26	47.76193
445.706	47.65722
446.152	47.0368
446.598	47.32747
447.044	47.28662
447.49	47.5035
447.936	47.33274
448.381	47.24135
448.827	47.60117
449.273	47.52467
449.718	47.88995
450.164	47.60227
450.61	47.05454
451.055	47.17808
451.5	47.70384
451.946	47.48154
452.391	47.5133
452.836	47.64254
453.282	47.2885
453.727	47.77919
454.172	47.42534
454.617	47.58858
455.062	47.3969
455.507	47.5381
455.952	47.90306
456.396	47.84041
456.841	48.15412
457.286	47.96273
457.731	47.96716
458.175	48.08897
458.62	48.45084
459.064	47.92243
459.509	48.29796
459.953	48.51946
460.398	48.17582
460.842	48.28754
461.286	48.75297
461.73	48.40308
462.174	48.95091
462.619	49.3108
463.063	49.17647
463.507	48.94593
463.951	49.07229
464.394	49.2376
464.838	49.40747
465.282	49.1921
465.726	49.51251
466.17	50.08638
466.613	50.35546
467.057	50.15821
467.5	50.49276
467.944	50.65675
468.387	50.90935
468.831	51.15551
469.274	51.39539
469.717	51.9444
470.16	51.87338
470.603	52.48143
471.047	51.93613
471.49	52.37239
471.933	52.66
472.376	52.92855
472.818	52.83193
473.261	52.77225
473.704	53.23857
474.147	53.54635
474.59	53.94516
475.032	53.71795
475.475	53.98019
475.917	54.22783
476.36	54.51454
476.802	54.98967
477.245	55.49994
477.687	55.56772
478.129	55.22072
478.571	55.76771
479.013	55.30254
479.456	55.64541
479.898	56.07616
480.34	56.81658
480.782	56.43246
481.224	56.53285
481.665	56.72705
482.107	56.9814
482.549	57.56336
482.991	57.42636
483.432	57.65162
483.874	58.01667
484.315	57.78933
484.757	58.23531
485.198	58.02572
485.64	59.13613
486.081	58.50147
486.522	58.71112
486.963	58.9971
487.405	59.20406
487.846	59.13546
488.287	59.48424
488.728	59.32876
489.169	59.27264
489.61	59.51616
490.05	59.77977
490.491	59.53328
490.932	59.94066
491.373	59.28296
491.813	60.10128
492.254	60.44463
492.694	60.10586
493.135	60.68856
493.575	60.28894
494.016	60.81618
494.456	60.57276
494.896	60.69837
495.336	61.16924
495.777	61.30282
496.217	61.83243
496.657	61.55185
497.097	61.38292
497.537	61.23535
497.977	62.06888
498.416	61.56752
498.856	62.31963
499.296	62.20524
499.736	62.62704
500.175	62.4159
500.615	62.30915
501.054	62.34139
501.494	63.13107
501.933	63.17509
502.373	62.98218
502.812	63.82288
503.251	64.21233
503.69	63.67312
504.129	64.21555
504.569	64.17651
505.008	64.65032
505.447	64.67741
505.886	65.00318
506.324	65.28591
506.763	65.67726
507.202	65.64225
507.641	65.82114
508.079	65.84549
508.518	66.03865
508.957	66.58931
509.395	66.01155
509.834	66.95686
510.272	67.05121
510.71	67.92241
511.149	67.39278
511.587	68.01414
512.025	68.02145
512.463	68.36354
512.901	68.88898
513.339	69.02038
513.777	69.89529
514.215	69.15901
514.653	70.03283
515.091	70.3108
515.529	69.97525
515.966	70.51001
516.404	70.89479
516.842	71.10657
517.279	71.15668
517.717	71.30241
518.154	71.70041
518.592	71.86792
519.029	72.12466
519.466	72.90087
519.904	72.72512
520.341	73.35416
520.778	73.33112
521.215	73.40638
521.652	74.1737
522.089	73.74109
522.526	74.01192
522.963	74.35527
523.399	74.45058
523.836	74.68891
524.273	75.10414
524.71	75.1972
525.146	75.35264
525.583	76.07682
526.019	76.63143
526.456	76.43689
526.892	77.0993
527.328	76.81868
527.765	76.83387
528.201	77.76433
528.637	77.60201
529.073	77.97781
529.509	77.84174
529.945	77.8128
530.381	78.17181
530.817	79.2206
531.253	79.19725
531.689	79.22534
532.124	79.06617
532.56	79.27646
532.996	79.85238
533.431	79.55384
533.867	80.69772
534.302	79.70013
534.738	80.02732
535.173	81.11793
535.608	81.15107
536.044	80.93305
536.479	81.13835
536.914	81.65737
537.349	82.23374
537.784	82.05997
538.219	82.00595
538.654	82.01799
539.089	82.16873
539.524	81.92192
539.959	82.37829
540.393	82.05154
540.828	82.2529
541.263	82.23905
541.697	82.63823
542.132	82.69557
542.566	82.67692
543.001	82.9207
543.435	82.5139
543.869	82.48671
544.303	83.0112
544.738	83.28398
545.172	82.60669
545.606	82.69154
546.04	82.51032
546.474	82.93782
546.908	83.0868
547.342	83.1177
547.775	82.78151
548.209	82.62569
548.643	82.57704
549.077	82.22501
549.51	83.1786
549.944	82.21973
550.377	81.98712
550.811	82.21641
551.244	81.95983
551.677	81.89013
552.111	81.90745
552.544	81.02466
552.977	80.94185
553.41	80.86868
553.843	80.50644
554.276	80.64177
554.709	80.65559
555.142	80.2781
555.575	80.53265
556.008	79.98429
556.44	80.17285
556.873	79.56983
557.306	79.76993
557.738	79.24498
558.171	78.61705
558.603	79.37033
559.036	78.35827
559.468	77.98229
559.9	78.09274
560.333	77.24258
560.765	77.61337
561.197	77.16298
561.629	77.15848
562.061	76.56478
562.493	76.34
562.925	76.16718
563.357	75.83287
563.789	76.33595
564.22	74.7519
564.652	75.26486
565.084	75.49297
565.515	74.63152
565.947	74.66457
566.378	74.30916
566.81	74.29867
567.241	73.85456
567.672	73.86442
568.104	72.78356
568.535	72.25058
568.966	72.42825
569.397	72.06562
569.828	71.47162
570.259	71.65925
570.69	71.27352
571.121	71.07497
571.552	71.4457
571.983	70.86396
572.414	70.39458
572.844	69.90632
573.275	69.44305
573.705	69.5106
574.136	69.17288
574.566	68.8672
574.997	68.39898
575.427	68.13419
575.857	67.41459
576.288	67.7199
576.718	67.27652
577.148	66.60847
577.578	66.91473
578.008	66.46509
578.438	65.98569
578.868	65.46037
579.298	65.91325
579.728	65.31804
580.157	64.69292
580.587	64.48322
581.017	64.48608
581.446	64.12809
581.876	63.36876
582.305	63.79024
582.735	62.91139
583.164	62.34032
583.593	62.19996
584.023	62.04733
584.452	62.22809
584.881	61.38388
585.31	61.18757
585.739	61.8495
586.168	61.49824
586.597	61.51438
587.026	61.22498
587.455	61.01152
587.884	60.44966
588.312	59.95979
588.741	60.17866
589.17	59.73659
589.598	59.20708
590.027	58.93001
590.455	58.8851
590.884	58.66255
591.312	58.5002
591.74	58.07373
592.168	57.92529
592.597	57.25888
593.025	56.9932
593.453	56.4912
593.881	57.00974
594.309	56.52994
594.737	56.10492
595.165	55.88735
595.592	55.54261
596.02	55.30097
596.448	55.0737
596.875	55.00511
597.303	55.02197
597.73	54.44086
598.158	54.52123
598.585	53.87278
599.013	54.01884
599.44	53.96127
599.867	53.96093
600.294	53.3703
600.722	53.28494
601.149	53.00957
601.576	53.10114
602.003	52.8797
602.43	52.42249
602.856	52.87529
603.283	52.107
603.71	51.91247
604.137	51.8859
604.563	51.8322
604.99	51.25609
605.416	51.1046
605.843	50.78207
606.269	50.60089
606.696	50.39593
607.122	50.47318
607.548	50.72846
607.975	50.28996
608.401	49.96565
608.827	50.13629
609.253	49.84375
609.679	49.79312
610.105	50.39971
610.531	49.4508
610.956	49.32072
611.382	49.23737
611.808	49.23518
612.234	48.83664
612.659	48.5476
613.085	48.93707
613.51	48.52084
613.936	48.66574
614.361	48.73428
614.786	48.64391
615.212	48.34668
615.637	48.52765
616.062	48.12239
616.487	48.32599
616.912	48.26762
617.337	47.99311
617.762	47.95979
618.187	47.88288
618.612	47.32947
619.037	47.68089
619.461	47.47209
619.886	47.12696
620.311	47.78641
620.735	47.55041
621.16	47.62398
621.584	47.42295
622.008	47.18095
622.433	47.67816
622.857	46.98842
623.281	46.93494
623.705	47.21562
624.13	46.74249
624.554	47.01194
624.978	47.42201
625.402	47.28794
625.826	46.87859
626.249	47.40115
626.673	47.3133
627.097	47.29292
627.521	46.95552
627.944	47.2857
628.368	47.12428
628.791	47.04409
629.215	47.09456
629.638	47.64547
630.061	47.14191
630.485	47.2609
630.908	47.78072
631.331	47.51726
631.754	47.14815
632.177	47.27046
632.6	47.81915
633.023	47.49891
633.446	48.22523
633.869	47.51484
634.292	47.64771
634.715	47.7871
635.137	48.40268
635.56	48.13096
635.982	48.30483
636.405	48.64719
636.827	48.41437
637.25	48.94437
637.672	48.42779
638.094	49.0016
638.517	48.76935
638.939	49.09502
639.361	49.13088
639.783	49.43539
640.205	49.25969
640.627	49.42235
641.049	49.73793
641.471	49.86048
641.893	49.98555
642.314	50.16956
642.736	50.47128
643.158	50.26504
643.579	50.93222
644.001	50.32908
644.422	50.38336
644.844	50.72439
645.265	51.31914
645.686	50.98838
646.107	51.71626
646.529	51.65021
646.95	51.24723
647.371	51.90309
647.792	52.35255
648.213	52.3447
648.634	52.92644
649.055	52.77369
649.475	53.26254
649.896	53.11149
650.317	53.05539
650.737	54.38564
651.158	54.00594
651.578	54.23559
651.999	55.13723
652.419	54.55136
652.84	54.80912
653.26	55.04681
653.68	55.36729
654.1	55.56179
654.521	55.24349
654.941	55.58211
655.361	56.58641
655.781	56.57189
656.2	56.53653
656.62	56.74851
657.04	56.9883
657.46	57.63495
657.879	57.92354
658.299	57.82714
658.719	58.0588
659.138	58.35993
659.558	57.81481
659.977	58.93369
660.396	58.33802
660.816	58.83163
661.235	58.8826
661.654	59.04604
662.073	59.81922
662.492	60.28747
662.911	60.18559
663.33	60.19044
663.749	60.2425
664.168	60.71607
664.587	60.338
665.006	60.6311
665.424	61.79506
665.843	60.923
666.261	61.11159
666.68	61.23676
667.098	61.79253
667.517	61.90025
667.935	62.48704
668.353	62.91893
668.772	62.37907
669.19	62.26356
669.608	62.8917
670.026	63.25494
670.444	63.16307
670.862	63.15479
671.28	63.20562
671.698	63.19062
672.115	63.79352
672.533	63.72728
672.951	63.74644
673.368	63.71244
673.786	63.7474
674.203	63.86818
674.621	64.79026
675.038	64.07631
675.456	64.46957
675.873	63.13489
676.29	63.19815
676.707	64.15966
677.124	63.41201
677.541	63.68634
677.958	63.41814
678.375	63.81783
678.792	63.84075
679.209	63.46974
679.626	64.13555
680.043	63.93702
680.459	64.74968
680.876	63.91118
681.292	63.97345
681.709	64.99296
682.125	63.68081
682.542	64.717
682.958	63.62819
683.374	63.80253
683.79	63.57062
684.207	63.80688
684.623	63.65042
685.039	63.68701
685.455	63.89978
685.871	63.04413
686.286	62.67496
686.702	62.35787
687.118	63.54718
687.534	62.61155
687.949	62.6551
688.365	62.54331
688.781	62.39772
689.196	62.7046
689.611	62.07214
690.027	62.60736
690.442	61.42629
690.857	61.53606
691.273	61.56879
691.688	61.27193
692.103	61.36633
692.518	60.64628
692.933	60.65896
693.348	60.87764
693.763	60.79331
694.177	60.2788
694.592	60.18476
695.007	60.41401
695.421	59.49763
695.836	59.63689
696.25	59.1329
696.665	59.00231
697.079	58.11936
697.494	58.66456
697.908	58.20272
698.322	58.10996
698.736	57.47596
699.151	57.62918
699.565	57.30888
699.979	57.13846
700.393	57.12878
700.806	56.31095
701.22	56.56295
701.634	55.66792
702.048	56.08699
702.461	54.95805
702.875	55.35312
703.289	54.75225
703.702	54.92941
704.116	54.1958
704.529	54.40614
704.942	54.08759
705.356	53.91752
705.769	53.73567
706.182	52.95609
706.595	52.59399
707.008	52.13557
707.421	52.20576
707.834	51.42927
708.247	51.73315
708.66	51.14139
709.072	51.59261
709.485	50.69985
709.898	50.87905
710.31	49.85898
710.723	50.31405
711.135	49.52772
711.548	49.59198
711.96	49.58433
712.373	49.39436
712.785	48.98842
713.197	48.84041
713.609	47.78678
714.021	47.87258
714.433	47.24773
714.845	47.06489
715.257	46.87332
715.669	46.9635
716.081	46.33118
716.493	46.14745
716.904	45.46854
717.316	45.18649
717.727	45.37999
718.139	44.53788
718.55	44.16134
718.962	43.18254
719.373	43.73511
719.784	42.86107
720.196	43.25333
720.607	42.61788
721.018	43.08931
721.429	42.24728
721.84	42.08621
722.251	41.30857
722.662	42.07862
723.073	40.68341
723.483	40.93741
723.894	39.98887
724.305	40.65385
724.715	39.72624
725.126	40.0618
725.536	39.06836
725.947	39.47324
726.357	38.44951
726.768	38.82668
727.178	38.24987
727.588	38.24432
727.998	37.66524
728.408	37.94147
728.818	37.07738
729.228	37.37852
729.638	36.69689
730.048	36.66564
730.458	36.20175
730.868	36.09933
731.277	35.67868
731.687	35.74313
732.097	35.58144
732.506	35.2722
732.916	35.15311
733.325	34.83652
733.734	34.92555
734.144	34.61796
734.553	34.74084
734.962	33.7537
735.371	34.14712
735.78	33.40158
736.189	34.00208
736.598	33.19039
737.007	33.61135
737.416	32.69052
737.825	33.02344
738.233	32.15181
738.642	32.58839
739.051	32.00009
739.459	32.64022
739.868	31.65306
740.276	32.25063
740.684	31.21764
741.093	31.6145
741.501	31.05944
741.909	31.34214
742.317	30.90827
742.725	31.00618
743.133	30.55885
743.541	30.23016
743.949	31.03437
744.357	30.50212
744.765	30.56875
745.173	29.78049
745.58	30.67419
745.988	29.68383
746.396	30.32403
746.803	29.3208
747.211	30.07741
747.618	29.24281
748.025	29.35837
748.433	29.34565
748.84	29.10636
749.247	28.83158
749.654	28.62695
750.061	28.73274
750.468	28.44894
750.875	28.44385
751.282	28.18597
751.689	28.63785
752.096	27.51099
752.502	28.45424
752.909	27.69666
753.316	28.38297
753.722	27.7193
754.129	28.02464
754.535	27.80574
754.941	27.47242
755.348	27.93462
755.754	27.38409
756.16	28.20225
756.566	27.23487
756.972	28.1091
757.378	27.08496
757.784	27.42115
758.19	27.20404
758.596	27.45981
759.002	26.80615
759.408	26.99076
759.813	27.4406
760.219	26.53446
760.624	27.22471
761.03	26.73953
761.435	26.5866
761.841	25.84184
762.246	26.29028
762.651	26.40432
763.057	26.32747
763.462	27.18131
763.867	26.57677
764.272	27.42984
764.677	27.01407
765.082	27.15828
765.487	26.76542
765.892	26.68281
766.296	26.87132
766.701	26.33139
767.106	26.53068
767.51	26.03879
767.915	26.9099
768.319	25.90055
768.724	26.1154
769.128	26.07039
769.532	25.91536
769.936	26.2433
770.341	25.78045
770.745	26.32555
771.149	25.60485
771.553	26.09626
771.957	25.83818
772.361	25.84646
772.764	26.14376
773.168	25.3047
773.572	25.98485
773.976	24.96276
774.379	25.71364
774.783	25.41292
775.186	25.38335
775.59	25.54369
775.993	25.36245
776.396	25.35201
776.8	24.96495
777.203	25.82445
777.606	25.47101
778.009	25.31808
778.412	25.92343
778.815	25.25655
779.218	25.86134
779.621	25.55634
780.023	25.52164
780.426	25.4538
780.829	25.61179
781.231	25.38466
781.634	24.92624
782.036	25.56475
782.439	25.62048
782.841	25.51012
783.244	25.53959
783.646	25.47794
784.048	25.85686
784.45	25.05034
784.852	25.79735
785.254	25.54481
785.656	25.81273
786.058	25.7812
786.46	25.61583
786.862	25.41913
787.264	25.04992
787.665	25.22289
788.067	25.35638
788.468	24.9905
788.87	25.57207
789.271	24.71997
789.673	25.57723
790.074	25.17191
790.475	25.57697
790.877	26.23589
791.278	25.38852
791.679	26.03291
792.08	25.46516
792.481	25.09471
792.882	25.63034
793.283	24.92777
793.683	25.69417
794.084	25.0287
794.485	25.24723
794.886	25.11943
795.286	25.20043
795.687	25.52636
796.087	25.16939
796.487	25.77563
796.888	25.66149
797.288	24.71748
797.688	25.32664
798.088	25.0666
798.489	25.53687
798.889	25.53653
799.289	25.49519
799.689	25.71088
800.088	25.08864
800.488	25.64283
800.888	25.58967
801.288	25.51289
801.687	26.17197
802.087	25.22269
802.486	25.59943
802.886	25.85889
803.285	25.73397
803.685	26.23481
804.084	25.63229
804.483	25.99092
804.882	25.63491
805.281	25.10154
805.68	26.23803
806.079	26.00883
806.478	25.734
806.877	25.73366
807.276	25.5385
807.675	25.76388
808.074	25.50458
808.472	25.80395
808.871	26.36631
809.269	25.33395
809.668	26.05935
810.066	26.15601
810.465	25.9959
810.863	26.14176
811.261	25.32743
811.659	26.28051
812.057	25.86753
812.455	26.19011
812.853	25.99424
813.251	25.51734
813.649	25.95077
814.047	26.014
814.445	25.48295
814.843	26.44157
815.24	25.96064
815.638	25.73231
816.035	26.21214
816.433	26.15901
816.83	26.02251
817.228	26.70551
817.625	26.07597
818.022	26.40238
818.419	26.3109
818.816	26.36593
819.213	26.59052
819.61	26.0103
820.007	26.74554
820.404	26.36272
820.801	26.86579
821.198	27.35119
821.595	26.67703
821.991	27.07547
822.388	27.73023
822.784	27.15549
823.181	27.96887
823.577	27.88368
823.974	27.80037
824.37	28.00596
824.766	27.58407
825.162	27.65001
825.558	27.56676
825.954	27.09237
826.35	27.63804
826.746	27.59499
827.142	27.56042
827.538	28.07712
827.934	27.58555
828.33	27.79432
828.725	27.61077
829.121	27.27469
829.516	27.45344
829.912	27.61438
830.307	27.10042
830.703	27.37329
831.098	27.00165
831.493	27.08038
831.888	27.62189
832.283	26.83645
832.678	27.16088
833.073	27.82682
833.468	27.36471
833.863	28.04743
834.258	28.34298
834.653	27.8777
835.048	28.0088
835.442	27.67591
835.837	27.63588
836.231	27.67853
836.626	27.57267
837.02	27.7134
837.415	28.14504
837.809	27.46859
838.203	27.40143
838.597	28.16833
838.991	27.12084
839.385	27.5316
839.779	27.60697
840.173	26.98417
840.567	27.82618
840.961	27.68063
841.355	27.24595
841.748	27.96204
842.142	27.23186
842.536	27.92593
842.929	28.06205
843.323	27.37495
843.716	27.6817
844.109	27.51297
844.503	27.40453
844.896	28.41945
845.289	28.43507
845.682	27.03312
846.075	28.70195
846.468	27.44459
846.861	27.45994
847.254	28.31133
847.647	27.83498
848.04	27.27576
848.432	28.8492
848.825	27.83249
849.217	27.91518
849.61	27.78432
850.002	28.21511
850.395	28.30242
850.787	28.21727
851.179	27.48541
851.572	28.42397
851.964	27.77322
852.356	27.62921
852.748	27.29381
853.14	28.36249
853.532	27.49367
853.924	28.5145
854.315	27.92371
854.707	28.0165
855.099	28.29813
855.491	27.69378
855.882	27.0654
856.274	28.0165
856.665	27.80537
857.056	27.43946
857.448	27.76347
857.839	27.74855
858.23	27.12423
858.621	28.48642
859.012	26.85512
859.403	26.72037
859.794	28.25617
860.185	27.74418
860.576	27.51987
860.967	27.8192
861.358	27.13434
861.748	27.3501
862.139	27.80158
862.529	27.91211
862.92	27.51051
863.31	27.88478
863.701	27.43401
864.091	28.15151
864.481	28.06695
864.872	27.76214
865.262	26.9783
865.652	28.29842
866.042	27.42944
866.432	27.86106
866.822	28.02605
867.211	28.31753
867.601	27.36556
867.991	27.78541
868.381	27.90693
868.77	27.35399
869.16	28.3667
869.549	28.24667
869.939	27.59512
870.328	27.89414
870.717	28.31017
871.106	27.59197
871.496	27.41847
871.885	28.60225
872.274	27.75756
872.663	28.33468
873.052	27.93476
873.441	26.72922
873.829	27.72125
874.218	27.5343
874.607	27.1815
874.996	27.18673
875.384	27.63861
875.773	27.03535
876.161	26.76314
876.549	27.49374
876.938	26.94637
877.326	27.27204
877.714	28.13299
878.102	27.05921
878.491	26.95221
878.879	27.32332
879.267	26.55943
879.655	27.38303
880.042	27.79883
880.43	27.29604
880.818	27.79768
881.206	28.31186
881.593	27.94961
881.981	27.72769
882.368	28.23955
882.756	28.01596
883.143	27.93318
883.53	27.9605
883.918	27.73507
884.305	27.29224
884.692	27.58481
885.079	27.8431
885.466	27.08406
885.853	27.5922
886.24	27.56285
886.627	27.12223
887.014	27.51666
887.4	27.9851
887.787	27.15046
888.174	26.68501
888.56	27.50087
888.947	27.08419
889.333	26.98781
889.719	27.79668
890.106	26.98961
890.492	26.90336
890.878	27.53672
891.264	27.43062
891.65	26.28204
892.036	27.4694
892.422	27.04041
892.808	25.55903
893.194	26.53813
893.58	26.86843
893.965	26.69819
894.351	26.47995
894.736	26.87482
895.122	27.28884
895.507	26.7772
895.893	27.38165
896.278	26.98163
896.663	26.86081
897.049	26.96471
897.434	27.5752
897.819	26.8992
898.204	26.77219
898.589	26.61562
898.974	26.47419
899.359	26.80182
899.743	27.06037
900.128	27.12114
900.513	26.5351
900.897	27.08617
901.282	26.92403
901.667	26.24656
902.051	26.86685
902.435	27.18311
902.82	26.17256
903.204	26.39927
903.588	26.60583
903.972	26.83744
904.356	27.33292
904.74	26.95082
905.124	27.08884
905.508	26.43846
905.892	26.96815
906.276	26.99093
906.659	26.8513
907.043	26.69208
907.427	28.06937
907.81	27.34734
908.194	27.37302
908.577	27.1825
908.96	27.57176
909.344	26.79928
909.727	26.05987
910.11	25.84626
910.493	27.42935
910.876	25.52072
911.259	25.91988
911.642	26.90731
912.025	25.20952
912.408	25.75512
912.79	25.96451
913.173	26.3303
913.556	25.59315
913.938	26.32651
914.321	25.63085
914.703	26.01735
915.086	26.59421
915.468	26.52979
915.85	26.19291
916.232	26.33188
916.614	26.95278
916.996	26.3294
917.378	25.90435
917.76	26.58605
918.142	26.67029
918.524	26.59043
918.906	26.87574
919.288	27.79021
919.669	27.02397
920.051	26.55563
920.432	27.53138
920.814	26.26615
921.195	26.32869
921.577	26.74965
921.958	26.35936
922.339	26.07653
922.72	26.6421
923.101	26.08617
923.482	27.33031
923.863	26.30442
924.244	26.76287
924.625	25.80455
925.006	26.25858
925.387	25.82245
925.767	26.69467
926.148	26.25003
926.528	25.97168
926.909	25.86288
927.289	25.72421
927.67	25.76449
928.05	25.63452
928.43	25.66987
928.81	26.97014
929.191	26.00296
929.571	24.44749
929.951	26.04311
930.331	26.47336
930.71	25.59422
931.09	25.22689
931.47	25.21064
931.85	25.88194
932.229	24.68069
932.609	25.14114
932.988	25.57969
933.368	26.059
933.747	25.31752
934.127	26.60062
934.506	25.43372
934.885	24.65309
935.264	26.02697
935.643	25.51201
936.022	24.76956
936.401	25.65472
936.78	26.16589
937.159	25.29806
937.538	24.49611
937.916	25.69516
938.295	24.91169
938.674	25.20061
939.052	24.50399
939.431	24.78264
939.809	24.19839
940.187	24.89707
940.566	23.36568
940.944	25.36387
941.322	24.24356
941.7	21.98865
942.078	24.48426
942.456	25.73601
942.834	23.95711
943.212	24.13707
943.59	25.01494
943.968	25.09974
944.345	24.17712
944.723	24.16458
945.1	24.06997
945.478	22.52161
945.855	23.51203
946.233	23.22064
946.61	25.47056
946.987	22.1335
947.365	22.49846
947.742	23.2402
948.119	24.58751
948.496	22.92422
948.873	23.8462
949.25	25.00944
949.626	24.10443
950.003	22.59634
950.38	23.50482
950.756	24.41606
951.133	23.54217
951.51	22.26248
951.886	23.67351
952.262	22.46163
952.639	23.79519
953.015	23.52551
953.391	22.85837
953.767	23.17567
954.143	21.50898
954.519	24.07847
954.895	23.37083
955.271	23.04095
955.647	21.08292
956.023	24.1552
956.399	22.30488
956.774	20.76917
957.15	23.7256
957.525	23.56863
957.901	22.95545
958.276	21.77716
958.652	21.96597
959.027	22.15936
959.402	24.04167
959.777	23.42323
960.152	20.99504
960.527	21.7186
960.902	22.97635
961.277	22.92742
961.652	22.30081
962.027	21.4341
962.402	21.931
962.776	21.56614
963.151	23.98988
963.525	23.32581
963.9	20.27942
964.274	22.23534
964.649	21.85422
965.023	21.12541
965.397	21.25497
965.771	21.53745
966.146	22.73354
966.52	23.0038
966.894	22.73033
967.268	21.73599
967.641	22.18464
968.015	22.29178
968.389	24.14626
968.763	22.02016
969.136	21.16173
969.51	22.35839
969.883	23.13021
970.257	21.93206
970.63	20.31809
971.003	20.85745
971.377	22.41388
971.75	22.62635
972.123	22.80275
972.496	21.39312
972.869	21.37089
973.242	22.66636
973.615	20.59382
973.988	21.91388
974.36	21.78866
974.733	21.98203
975.106	21.93394
975.478	22.49969
975.851	22.14351
976.223	21.389
976.596	20.4936
976.968	21.23549
977.34	22.98849
977.712	20.17853
978.085	20.73013
978.457	22.38878
978.829	21.33726
979.201	22.9482
979.573	21.69532
979.944	21.59539
980.316	22.9193
980.688	22.39602
981.059	20.38543
981.431	22.27384
981.803	20.56964
982.174	21.99703
982.545	21.76558
982.917	22.7445
983.288	21.25281
983.659	20.86918
984.03	21.29119
984.401	22.66393
984.772	23.09909
985.143	21.87591
985.514	19.98392
985.885	22.692
986.256	21.33434
986.627	20.81103
986.997	20.68729
987.368	20.35271
987.738	22.15748
988.109	20.74263
988.479	21.63032
988.85	21.56508
989.22	22.45345
989.59	20.46878
989.96	21.16813
990.33	20.72678
990.7	21.82665
991.07	21.5898
991.44	20.46063
991.81	19.78469
992.18	22.45471
992.549	22.12393
992.919	19.86644
993.289	21.38075
993.658	19.57803
994.028	21.60604
994.397	19.25947
994.766	21.40589
995.136	23.26495
995.505	20.29503
995.874	22.11288
996.243	21.00678
996.612	20.46726
996.981	22.62227
997.35	21.2759
997.719	19.15915
998.088	19.52098
998.456	21.21471
998.825	22.02706
999.194	22.54781
999.562	16.83174
999.931	22.65745
1000.299	14.15926
1000.667	20.25597
1001.036	19.92257
1001.404	23.72201
1001.772	17.03636
1002.14	17.74869
1002.508	20.71322
1002.876	18.0852
1003.244	16.68734
1003.612	18.19486
1003.98	15.27203
1004.347	17.19653
1004.715	21.38497
1005.083	19.66462
1005.45	18.2663
1005.818	18.84839
1006.185	18.42798
1006.552	19.3328
1006.92	17.92288
1007.287	17.93519
1007.654	15.64183
1008.021	18.26432
1008.388	15.72308
1008.755	19.92655
1009.122	18.68578
1009.489	19.01016
1009.856	21.08895
1010.222	16.05544
1010.589	18.59509
1010.956	19.73979
1011.322	16.52757
1011.689	22.91668
1012.055	16.36036
1012.421	12.89707
1012.788	18.71287
1013.154	16.17665
1013.52	19.76899
1013.886	17.6357
1014.252	13.45928
1014.618	19.0032
1014.984	11.32351
1015.35	17.40901
1015.716	18.13344
1016.081	14.36169
1016.447	13.58647
1016.813	13.8832
1017.178	12.63785
1017.544	16.55195
1017.909	19.02114
1018.274	15.48722
1018.64	11.89421
1019.005	17.83393
1019.37	10.79552
1019.735	18.86434
1020.1	7.84865
1020.465	18.31819
1020.83	10.07709
1021.195	8.08209
1021.56	9.34975
1021.924	15.78061
1022.289	21.36273
1022.654	10.3165
1023.018	11.00435
1023.383	5.51319
1023.747	10.45064
1024.111	12.60064
1024.476	20.16815
1024.84	9.05039
1025.204	15.95647
1025.568	12.41894
1025.932	18.98621
1026.296	12.69865
1026.66	11.85093
1027.024	13.05031
1027.387	3.73657
1027.751	12.816
1028.115	3.83456
1028.478	4.29054
1028.842	3.02078
1029.205	9.79177
1029.569	11.59383
1029.932	11.2066
1030.295	16.88967
1030.659	11.3124
1031.022	6.97182
1031.385	1.75304
1031.748	12.43125
1032.111	-1.83106
1032.474	4.34463
1032.836	4.38315
1033.199	13.76563
1033.562	4.12716
1033.924	17.83679
1034.287	19.44562
1034.65	3.57982
1035.012	24.10596
1035.374	-2.85512
1035.737	-3.59253
1036.099	-4.3585
1036.461	-4.58729
1036.823	9.93223
1037.185	8.92817
1037.547	4.38608
1037.909	-3.81922
1038.271	5.8792
1038.633	3.49461
1038.995	3.6524
1039.356	4.48032
1039.718	5.53227
1040.08	14.22812
1040.441	3.42034
1040.803	-9.8057
1041.164	7.90968
1041.525	5.94499
1041.886	0
1042.248	6.24704
1042.609	1.97253
1042.97	-0.49
1043.331	8.22315
1043.692	-1.85773
1044.053	-3.36396
1044.413	-1.82568
1044.774	8.69169
1045.135	-10.74264
1045.495	-22.16018
1045.856	-1.11071
1046.216	-16.44973
1046.577	19.34911
1046.937	19.37626
1047.298	19.8743
