Data from 1014water-6_Reflection__13__23-50-30-767.txt Node

Date: Tue Oct 14 23:50:30 AST 2025
User: lin
Spectrometer: SR600411
Trigger mode: 0
Integration Time (sec): 5.910000E-2
Scans to average: 5
Nonlinearity correction enabled: true
Boxcar width: 0
Storing dark spectrum: false
XAxis mode: Wavelengths
Number of Pixels in Spectrum: 2048
>>>>>Begin Spectral Data<<<<<
187.982	29.68488
188.456	38.50589
188.93	46.65414
189.403	41.38623
189.877	31.2654
190.351	39.01769
190.825	34.28675
191.298	22.7991
191.772	21.63728
192.246	36.24759
192.719	27.05219
193.193	23.8241
193.666	16.736
194.139	45.05298
194.613	39.34569
195.086	20.75505
195.559	37.56753
196.033	41.21524
196.506	47.33593
196.979	44.64557
197.452	43.23797
197.925	56.8129
198.398	56.97847
198.871	39.64791
199.344	45.51272
199.816	45.67981
200.289	35.64722
200.762	42.84666
201.235	33.91866
201.707	13.76854
202.18	7.09476
202.652	13.98262
203.125	11.3176
203.597	26.7125
204.07	-5.79543
204.542	6.72948
205.014	16.17283
205.486	12.67295
205.959	17.19304
206.431	14.1484
206.903	33.03082
207.375	4.79887
207.847	27.64034
208.319	21.04826
208.791	-1.19028
209.263	13.95043
209.734	-17.68696
210.206	-64.3683
210.678	14.48937
211.15	2.99943
211.621	-11.36144
212.093	20.60646
212.564	-49.99083
213.036	20.40502
213.507	6.97509
213.979	2.7772
214.45	4.49363
214.921	16.52562
215.392	-5.93074
215.864	-24.99432
216.335	6.74047
216.806	-53.01973
217.277	4.30032
217.748	4.49363
218.219	-20.38335
218.69	-75.49737
219.161	-40.25116
219.631	-15.29116
220.102	6.17098
220.573	0
221.043	-15.95401
221.514	-9.24132
221.985	-36.22516
222.455	-13.00456
222.926	-14.10008
223.396	-17.9738
223.866	-17.06993
224.337	-1.8014
224.807	-18.38706
225.277	-17.71827
225.747	-15.38142
226.217	-18.09855
226.687	-8.33183
227.157	-16.82776
227.627	-15.64806
228.097	-11.39042
228.567	-16.81827
229.037	-46.86195
229.507	9.89921
229.977	-11.95409
230.446	1.99981
230.916	25.85768
231.386	2.35256
231.855	-35.84396
232.325	-44.06039
232.794	-10.97364
233.263	21.20885
233.733	9.99769
234.202	-32.04476
234.671	-12.64123
235.14	-21.12317
235.61	1.49234
236.079	-19.31417
236.548	-39.38678
237.017	3.29613
237.486	-19.35201
237.955	-87.91208
238.424	-6.34753
238.892	19.47813
239.361	-22.53134
239.83	-24.41344
240.299	4.91691
240.767	-154.72919
241.236	-10.34286
241.704	-92.07871
242.173	-34.20363
242.641	-12.11944
243.109	-30.24283
243.578	-27.68777
244.046	-95.28897
244.514	-16.4356
244.982	-63.0637
245.451	-92.28944
245.919	-15.31144
246.387	-69.62977
246.855	-4.70505
247.323	-25.57594
247.791	-37.60353
248.258	-18.27559
248.726	-64.9873
249.194	-71.41334
249.662	-18.45873
250.129	-16.27585
250.597	-36.4792
251.064	-37.20062
251.532	-51.37783
251.999	-104.06106
252.467	-32.38836
252.934	-37.09054
253.401	-105.44828
253.869	7.4989
254.336	-17.20059
254.803	-35.08239
255.27	-19.14469
255.737	-5.88152
256.204	-16.89864
256.671	-111.08192
257.138	-23.85849
257.605	-23.99706
258.072	-70.25279
258.539	0
259.005	1.2498
259.472	-85.4856
259.939	42.64377
260.405	-64.57325
260.872	-62.32226
261.338	-127.42175
261.805	24.99585
262.271	-119.12469
262.737	38.09034
263.203	3.50801
263.67	-29.99615
264.136	27.51864
264.602	-38.81448
265.068	-77.48913
265.534	-10.41558
266	-106.95792
266.466	-9.08962
266.932	-99.9834
267.398	-55.37356
267.864	-39.71802
268.329	-42.84952
268.795	-213.75469
269.261	5.79636
269.726	-3.07652
270.192	-28.74414
270.657	-47.61029
271.123	-37.85346
271.588	-16.32469
272.053	-38.26312
272.519	-17.38852
272.984	-70.67583
273.449	-96.41808
273.914	-72.80322
274.379	-9.19367
274.844	4.10902
275.309	-41.42046
275.774	-12.76462
276.239	16.30825
276.704	-29.78005
277.169	-22.82099
277.634	16.86517
278.098	-37.06971
278.563	-56.85375
279.028	-28.2292
279.492	-77.76548
279.957	-42.61562
280.421	-58.13173
280.886	-1.9996
281.35	-9.41003
281.814	-22.68253
282.279	-59.74064
282.743	62.37155
283.207	-56.75026
283.671	-44.76753
284.135	-37.49266
284.599	-51.65738
285.063	-109.80829
285.527	-41.16865
285.991	-108.67503
286.455	-74.98547
286.919	38.46032
287.382	-47.04952
287.846	-16.66367
288.31	7.44553
288.773	-141.15358
289.237	-51.55261
289.7	-31.33783
290.164	-89.01681
290.627	-77.57041
291.09	-24.99506
291.554	-84.72751
292.017	-161.51679
292.48	-13.15565
292.943	-122.19806
293.406	-82.67678
293.869	-3.88267
294.332	-2.04061
294.795	-34.13892
295.258	-25.36893
295.721	-102.06377
296.184	-49.01224
296.646	-70.47731
297.109	-5.1536
297.572	-442.79061
298.034	-41.32467
298.497	-97.85436
298.959	-1899.77468
299.422	-30.43117
299.884	-30.22921
300.346	-67.98872
300.809	-83.77254
301.271	19.22837
301.733	-54.78227
302.195	-60.7035
302.657	64.57899
303.119	-71.40993
303.581	-196.26529
304.043	2.77739
304.505	2.01981
304.967	-26.91781
305.429	-7.76529
305.891	-52.93029
306.352	-1.6127
306.814	11.10953
307.275	-28.98041
307.737	19.73446
308.198	-48.04112
308.66	-9.08962
309.121	-44.58516
309.583	-17.94709
310.044	-182.72898
310.505	34.77745
310.966	-81.33872
311.428	-15.78741
311.889	-19.99691
312.35	-12.32677
312.811	-199.97391
313.272	-79.4762
313.733	-17.89078
314.193	1094.57684
314.654	-67.67774
315.115	-107.67507
315.576	-69.37638
316.036	-41.53092
316.497	-309.03596
316.957	-585.65872
317.418	-131.80488
317.878	-55.09377
318.339	-8.57078
318.799	0
319.259	-33.32596
319.72	-14.99727
320.18	-66.08888
320.64	-93.32264
321.1	-85.16833
321.56	-53.43887
322.02	-89.7794
322.48	7.86389
322.94	-230.72999
323.4	0
323.86	11.90302
324.319	-563.5551
324.779	-15.90588
325.239	-44.91865
325.698	-27.05305
326.158	-46.80213
326.617	-77.1776
327.077	-71.4184
327.536	-52.26581
327.996	-32.90456
328.455	-26.24476
328.914	-47.16254
329.373	-25.75335
329.832	10.46352
330.292	-1.07507
330.751	-55.87066
331.21	-127.47709
331.668	-28.11817
332.127	-6.36216
332.586	10.90803
333.045	7.60742
333.504	-123.37867
333.962	-77.5937
334.421	-339.95561
334.88	-102.1085
335.338	-102.06376
335.797	12.32721
336.255	-46.02337
336.714	15.46141
337.172	34.18283
337.63	-28.56787
338.088	11.109
338.547	-74.58696
339.005	-12.04598
339.463	-12.03416
339.921	-25.36893
340.379	-114.26199
340.837	-11.53648
341.295	-42.09852
341.753	-59.98958
342.21	-98.16066
342.668	-63.14627
343.126	-39.99226
343.584	-48.18107
344.041	-21.34376
344.499	-16.66367
344.956	15.093
345.414	-1.8014
345.871	-159.96304
346.328	-59.07866
346.786	-60.70349
347.243	-83.98473
347.7	-84.10772
348.157	-42.58612
348.614	-21.42497
349.071	-20.2667
349.528	-2099.72586
349.985	17.20968
350.442	-110.73926
350.899	30.4319
351.356	-5.3325
351.812	-55.89796
352.269	-30.2953
352.726	-82.48812
353.182	-3.29609
353.639	-30.94566
354.095	7.79111
354.552	-2.94077
355.008	-20.33613
355.465	-53.61197
355.921	3.40852
356.377	-29.99308
356.833	-61.95776
357.289	-6.02305
357.745	-54.33257
358.201	-97.19497
358.657	6.05949
359.113	0.9998
359.569	-4.2097
360.025	27.20513
360.481	-13.88552
360.937	7.14176
361.392	43.04858
361.848	23.19561
362.303	18.93539
362.759	16.5108
363.214	34.94561
363.67	27.07585
364.125	30.75995
364.581	16.72281
365.036	42.84531
365.491	41.01263
365.946	36.25129
366.401	37.15705
366.856	47.07612
367.311	33.4213
367.766	36.24717
368.221	41.17484
368.676	43.00559
369.131	45.41243
369.586	39.97828
370.041	46.90107
370.495	47.4326
370.95	45.59382
371.404	52.7198
371.859	50.16482
372.313	44.33661
372.768	48.31506
373.222	48.57849
373.676	48.30532
374.131	51.3659
374.585	49.5458
375.039	55.45045
375.493	53.67191
375.947	54.88238
376.401	55.08804
376.855	54.23958
377.309	52.68158
377.763	54.80696
378.217	54.29872
378.67	56.25115
379.124	53.88728
379.578	55.00587
380.031	55.22809
380.485	54.72819
380.938	53.33387
381.392	55.15441
381.845	53.44289
382.299	55.92379
382.752	55.58451
383.205	55.15486
383.658	56.42233
384.111	55.13948
384.564	55.52656
385.018	56.01112
385.471	55.01723
385.923	54.92236
386.376	55.32154
386.829	57.11693
387.282	56.1038
387.735	56.23991
388.187	57.85415
388.64	57.16216
389.093	55.84251
389.545	57.54061
389.998	57.31095
390.45	57.04922
390.902	57.46041
391.355	57.20892
391.807	58.53057
392.259	57.09042
392.711	57.87588
393.163	57.6441
393.615	57.75532
394.068	58.48418
394.519	58.48876
394.971	57.40687
395.423	57.70635
395.875	58.29068
396.327	57.79718
396.779	57.67829
397.23	58.2254
397.682	57.66291
398.133	58.01935
398.585	57.48199
399.036	57.66733
399.488	57.04835
399.939	57.568
400.39	57.57563
400.842	55.56169
401.293	57.79022
401.744	57.09187
402.195	57.94903
402.646	57.40799
403.097	57.07985
403.548	57.45354
403.999	57.46072
404.45	56.17848
404.9	57.10838
405.351	57.14721
405.802	56.64386
406.253	56.15908
406.703	56.34392
407.154	56.49091
407.604	56.11741
408.055	55.2598
408.505	56.00872
408.955	55.9752
409.406	55.80486
409.856	55.05765
410.306	55.93947
410.756	54.53815
411.206	55.3792
411.656	54.52298
412.106	54.50772
412.556	54.04321
413.006	54.57475
413.456	53.56189
413.905	53.51816
414.355	53.53279
414.805	53.76356
415.254	54.22218
415.704	53.30434
416.153	52.4049
416.603	53.03196
417.052	53.37789
417.502	52.72181
417.951	52.28921
418.4	51.70206
418.849	51.95037
419.298	52.02305
419.748	52.48188
420.197	52.62929
420.646	51.39336
421.094	51.77187
421.543	51.24174
421.992	51.35712
422.441	51.87302
422.89	50.98519
423.338	50.94669
423.787	51.14393
424.236	50.44851
424.684	50.16238
425.133	50.43534
425.581	49.99319
426.029	49.63141
426.478	49.9156
426.926	49.27364
427.374	49.23732
427.822	49.12126
428.27	49.08695
428.718	49.34496
429.166	49.2294
429.614	49.23973
430.062	48.67731
430.51	48.48098
430.958	48.64493
431.406	48.75433
431.853	48.46102
432.301	48.62437
432.749	48.32406
433.196	48.2571
433.644	47.82049
434.091	48.04438
434.538	48.10837
434.986	47.95665
435.433	47.86096
435.88	47.6424
436.327	47.30074
436.775	47.95412
437.222	47.40955
437.669	47.15122
438.116	47.55943
438.563	47.41554
439.009	47.54045
439.456	47.72318
439.903	47.19854
440.35	47.21414
440.796	47.48149
441.243	47.20772
441.689	46.85542
442.136	47.46502
442.582	47.09867
443.029	47.24748
443.475	46.80716
443.921	46.66114
444.368	47.22659
444.814	47.47972
445.26	47.33622
445.706	47.38253
446.152	47.10247
446.598	47.2958
447.044	47.32952
447.49	47.5016
447.936	47.11184
448.381	47.22988
448.827	47.33391
449.273	47.25628
449.718	47.35912
450.164	47.44893
450.61	47.13712
451.055	47.16752
451.5	47.61595
451.946	47.73685
452.391	47.68079
452.836	47.74612
453.282	47.38592
453.727	47.43686
454.172	47.37554
454.617	47.32581
455.062	47.40446
455.507	47.72835
455.952	47.50461
456.396	48.04987
456.841	47.80736
457.286	47.89018
457.731	47.68791
458.175	47.79519
458.62	47.98835
459.064	48.32509
459.509	48.15748
459.953	48.02455
460.398	48.32163
460.842	48.45166
461.286	48.89483
461.73	48.55552
462.174	48.48812
462.619	48.4394
463.063	48.70803
463.507	48.70475
463.951	48.88199
464.394	49.55794
464.838	49.02986
465.282	49.51836
465.726	49.55821
466.17	50.46932
466.613	50.18473
467.057	50.35178
467.5	50.71391
467.944	50.5781
468.387	51.20326
468.831	51.00857
469.274	51.49639
469.717	51.86208
470.16	51.86092
470.603	52.13523
471.047	51.80816
471.49	52.71829
471.933	52.89884
472.376	52.88353
472.818	52.76788
473.261	53.08613
473.704	53.36057
474.147	53.72488
474.59	54.00399
475.032	53.88776
475.475	54.21739
475.917	54.35005
476.36	54.69836
476.802	55.30861
477.245	55.03633
477.687	55.41369
478.129	55.2987
478.571	55.69563
479.013	55.7148
479.456	55.8503
479.898	56.36554
480.34	56.12643
480.782	56.68523
481.224	56.79485
481.665	56.84106
482.107	56.92363
482.549	57.30214
482.991	57.3531
483.432	57.3506
483.874	58.29669
484.315	57.65347
484.757	58.12793
485.198	58.04349
485.64	58.12343
486.081	58.23233
486.522	58.5999
486.963	59.54772
487.405	59.08394
487.846	59.25602
488.287	59.33316
488.728	59.41871
489.169	59.53796
489.61	59.7284
490.05	59.46137
490.491	59.7738
490.932	59.50549
491.373	59.96176
491.813	60.01606
492.254	59.97771
492.694	60.10423
493.135	60.37718
493.575	60.47034
494.016	60.03018
494.456	60.34123
494.896	60.79741
495.336	60.78044
495.777	61.15359
496.217	61.21947
496.657	60.98267
497.097	61.37546
497.537	61.43367
497.977	61.31194
498.416	61.59562
498.856	61.86077
499.296	61.88735
499.736	62.43206
500.175	62.16784
500.615	62.0977
501.054	62.15032
501.494	62.68366
501.933	62.97588
502.373	62.84676
502.812	63.06572
503.251	63.99942
503.69	63.50264
504.129	64.47155
504.569	64.34069
505.008	64.32517
505.447	64.50175
505.886	65.11564
506.324	65.13327
506.763	65.62496
507.202	65.14956
507.641	65.25451
508.079	66.00411
508.518	66.69318
508.957	66.38816
509.395	66.1202
509.834	67.13825
510.272	67.01712
510.71	67.35348
511.149	67.48678
511.587	67.73704
512.025	68.13733
512.463	68.20413
512.901	68.21228
513.339	68.66615
513.777	68.94919
514.215	69.50463
514.653	69.85384
515.091	70.16147
515.529	70.27072
515.966	70.28846
516.404	70.88813
516.842	70.99871
517.279	70.9637
517.717	71.16462
518.154	71.51519
518.592	71.73547
519.029	72.07249
519.466	72.80656
519.904	72.04483
520.341	73.26902
520.778	73.08076
521.215	73.64094
521.652	73.54203
522.089	73.97573
522.526	74.05976
522.963	74.25639
523.399	74.54352
523.836	74.41775
524.273	75.45235
524.71	75.05743
525.146	75.96756
525.583	76.3959
526.019	76.32359
526.456	76.40226
526.892	76.93277
527.328	76.72161
527.765	76.83387
528.201	77.00986
528.637	76.97595
529.073	78.03528
529.509	77.62781
529.945	77.72425
530.381	77.94461
530.817	79.1521
531.253	79.01211
531.689	79.55148
532.124	78.69493
532.56	79.33405
532.996	79.7525
533.431	80.17307
533.867	80.51625
534.302	79.35477
534.738	80.071
535.173	80.53074
535.608	80.90303
536.044	81.11772
536.479	80.89111
536.914	81.44952
537.349	81.65923
537.784	81.53369
538.219	81.72236
538.654	82.07071
539.089	81.54781
539.524	81.48942
539.959	81.73522
540.393	81.46479
540.828	82.35364
541.263	82.17959
541.697	82.12394
542.132	82.77724
542.566	82.76624
543.001	82.89319
543.435	82.37821
543.869	82.4391
544.303	82.68866
544.738	83.15289
545.172	82.22764
545.606	82.53691
546.04	82.52322
546.474	82.43719
546.908	82.67164
547.342	82.66885
547.775	82.30883
548.209	82.35847
548.643	82.14461
549.077	81.98777
549.51	82.24197
549.944	82.60817
550.377	82.04826
550.811	81.90556
551.244	81.91853
551.677	80.80047
552.111	81.31223
552.544	80.89069
552.977	80.32654
553.41	81.01569
553.843	80.77601
554.276	80.54811
554.709	80.91854
555.142	79.9481
555.575	80.11048
556.008	80.45669
556.44	79.49438
556.873	79.74265
557.306	79.62249
557.738	79.09236
558.171	78.68673
558.603	78.81235
559.036	77.95658
559.468	78.04711
559.9	77.71056
560.333	77.36811
560.765	77.47473
561.197	77.44532
561.629	77.37324
562.061	76.59527
562.493	76.32576
562.925	76.06936
563.357	75.55642
563.789	75.70465
564.22	75.31428
564.652	75.40979
565.084	75.33049
565.515	74.80907
565.947	74.36364
566.378	73.80273
566.81	73.79264
567.241	73.31258
567.672	72.81907
568.104	72.59796
568.535	72.37361
568.966	72.35395
569.397	71.57699
569.828	71.29742
570.259	71.52681
570.69	71.37169
571.121	70.7977
571.552	70.65408
571.983	69.97391
572.414	70.06816
572.844	69.78018
573.275	69.24359
573.705	69.19316
574.136	68.99844
574.566	68.56605
574.997	68.23688
575.427	67.90642
575.857	67.52632
576.288	67.29015
576.718	67.14675
577.148	66.83009
577.578	66.43209
578.008	66.37722
578.438	66.17306
578.868	65.35945
579.298	65.78477
579.728	65.32089
580.157	64.84157
580.587	64.28614
581.017	64.18049
581.446	63.22764
581.876	63.31862
582.305	63.73296
582.735	62.47623
583.164	62.06638
583.593	62.26044
584.023	61.76669
584.452	61.65892
584.881	61.1877
585.31	61.1862
585.739	61.21343
586.168	61.2713
586.597	61.2198
587.026	60.73473
587.455	60.64259
587.884	60.39969
588.312	60.00814
588.741	59.77809
589.17	59.29584
589.598	59.03233
590.027	58.4608
590.455	58.53234
590.884	57.84962
591.312	57.93161
591.74	57.38854
592.168	57.14684
592.597	57.27628
593.025	56.75557
593.453	56.29516
593.881	56.21056
594.309	56.19504
594.737	55.72891
595.165	55.17454
595.592	54.74071
596.02	54.98735
596.448	54.86697
596.875	54.44421
597.303	54.3286
597.73	54.05133
598.158	54.24441
598.585	53.78612
599.013	53.57588
599.44	53.63267
599.867	53.06921
600.294	53.30216
600.722	53.00025
601.149	52.94857
601.576	52.82642
602.003	52.3449
602.43	52.49863
602.856	52.23975
603.283	52.1543
603.71	51.78619
604.137	51.3363
604.563	51.60378
604.99	50.98127
605.416	50.69194
605.843	50.43695
606.269	50.58695
606.696	49.9571
607.122	50.35819
607.548	50.49621
607.975	49.73523
608.401	50.21449
608.827	49.79037
609.253	50.06965
609.679	49.67084
610.105	50.05998
610.531	49.29677
610.956	48.86495
611.382	48.84762
611.808	48.85802
612.234	48.40952
612.659	48.5533
613.085	48.58376
613.51	48.35126
613.936	48.04744
614.361	48.27125
614.786	48.28773
615.212	48.18838
615.637	48.02677
616.062	47.92766
616.487	48.03685
616.912	47.95534
617.337	47.65401
617.762	47.80569
618.187	47.68793
618.612	47.26269
619.037	47.27195
619.461	47.28384
619.886	46.89574
620.311	47.03612
620.735	46.81168
621.16	47.11789
621.584	46.82456
622.008	46.84802
622.433	47.28966
622.857	46.93661
623.281	46.85045
623.705	47.10512
624.13	46.45187
624.554	46.54047
624.978	47.08244
625.402	46.82055
625.826	46.72043
626.249	47.01204
626.673	46.63405
627.097	46.81417
627.521	46.66148
627.944	46.50529
628.368	46.78951
628.791	47.19596
629.215	46.80931
629.638	47.18825
630.061	46.9034
630.485	47.32592
630.908	47.39577
631.331	47.23087
631.754	47.45785
632.177	46.97359
632.6	47.47458
633.023	46.90781
633.446	47.71978
633.869	47.42898
634.292	46.98675
634.715	47.5943
635.137	48.11117
635.56	47.76111
635.982	47.9537
636.405	47.88713
636.827	47.84072
637.25	48.59585
637.672	47.98032
638.094	48.86732
638.517	48.99064
638.939	48.9784
639.361	48.59839
639.783	48.84062
640.205	49.66579
640.627	49.37537
641.049	49.81487
641.471	49.63457
641.893	49.93969
642.314	50.21973
642.736	50.39046
643.158	50.40479
643.579	50.70624
644.001	51.03022
644.422	50.42593
644.844	51.12184
645.265	51.15677
645.686	50.98635
646.107	51.54897
646.529	51.58868
646.95	51.49745
647.371	51.88074
647.792	52.06838
648.213	52.03286
648.634	52.0945
649.055	52.26819
649.475	52.82422
649.896	52.94229
650.317	53.44297
650.737	53.72766
651.158	54.1224
651.578	54.52161
651.999	54.80566
652.419	54.48881
652.84	54.61303
653.26	54.69008
653.68	55.13788
654.1	55.3166
654.521	55.12898
654.941	55.18389
655.361	56.26674
655.781	56.31265
656.2	56.18336
656.62	56.89402
657.04	57.2212
657.46	57.43435
657.879	57.97794
658.299	57.30982
658.719	58.13728
659.138	58.18717
659.558	58.33323
659.977	58.51562
660.396	58.45212
660.816	58.87623
661.235	58.80701
661.654	59.11896
662.073	59.59684
662.492	59.7539
662.911	60.37464
663.33	60.52791
663.749	60.62221
664.168	60.94794
664.587	60.30328
665.006	60.70449
665.424	61.73843
665.843	61.00983
666.261	61.07478
666.68	61.22373
667.098	61.87058
667.517	62.06036
667.935	61.94734
668.353	62.71714
668.772	62.52972
669.19	62.52037
669.608	63.06395
670.026	63.16976
670.444	63.36445
670.862	62.48821
671.28	62.8487
671.698	63.19898
672.115	63.60293
672.533	63.80232
672.951	63.50248
673.368	63.32672
673.786	63.54526
674.203	63.56727
674.621	63.84274
675.038	64.71497
675.456	63.99559
675.873	63.49963
676.29	63.31905
676.707	64.09703
677.124	63.66354
677.541	63.7246
677.958	63.74556
678.375	64.32365
678.792	63.96361
679.209	63.86975
679.626	64.406
680.043	64.05442
680.459	64.94477
680.876	64.19767
681.292	64.08239
681.709	64.50341
682.125	64.12523
682.542	65.00356
682.958	63.39408
683.374	64.1085
683.79	63.81894
684.207	63.78868
684.623	64.13115
685.039	63.39763
685.455	63.74089
685.871	63.57202
686.286	63.72766
686.702	62.97534
687.118	63.48506
687.534	63.12026
687.949	62.53969
688.365	62.50551
688.781	62.41214
689.196	62.817
689.611	61.95956
690.027	62.89389
690.442	61.3845
690.857	61.74157
691.273	61.52841
691.688	61.34564
692.103	61.2548
692.518	60.57166
692.933	60.78491
693.348	60.54496
693.763	60.83874
694.177	59.8896
694.592	60.0575
695.007	59.96984
695.421	59.39552
695.836	59.33275
696.25	58.96039
696.665	59.17231
697.079	58.21863
697.494	58.67612
697.908	58.44403
698.322	58.30327
698.736	57.75041
699.151	57.21325
699.565	57.04231
699.979	57.24265
700.393	57.25432
700.806	56.26873
701.22	56.41465
701.634	56.10662
702.048	56.18572
702.461	54.9523
702.875	55.56725
703.289	54.83594
703.702	55.17582
704.116	54.59992
704.529	54.16295
704.942	53.96996
705.356	53.49878
705.769	53.68674
706.182	52.69881
706.595	52.77557
707.008	52.2748
707.421	52.02117
707.834	51.51096
708.247	52.00904
708.66	50.97861
709.072	51.58182
709.485	50.9362
709.898	51.05617
710.31	49.88025
710.723	50.26103
711.135	49.16803
711.548	49.38575
711.96	49.4749
712.373	48.99066
712.785	48.05358
713.197	48.58093
713.609	47.66957
714.021	47.57977
714.433	47.20323
714.845	47.167
715.257	46.71388
715.669	46.54935
716.081	46.13427
716.493	45.31194
716.904	45.59746
717.316	44.59792
717.727	45.06869
718.139	44.01249
718.55	44.02098
718.962	43.66078
719.373	43.57934
719.784	42.9046
720.196	43.23933
720.607	42.25127
721.018	42.87254
721.429	41.77274
721.84	41.89777
722.251	41.35366
722.662	41.58666
723.073	40.62851
723.483	41.23319
723.894	39.78974
724.305	40.36076
724.715	39.02965
725.126	39.35703
725.536	38.54181
725.947	38.9726
726.357	38.47675
726.768	38.49123
727.178	37.75028
727.588	38.31783
727.998	37.60842
728.408	37.36084
728.818	36.86882
729.228	37.37686
729.638	36.5636
730.048	36.72197
730.458	36.30913
730.868	36.0192
731.277	35.278
731.687	35.66723
732.097	35.34338
732.506	35.70304
732.916	35.51699
733.325	34.8479
733.734	34.63772
734.144	34.52564
734.553	34.19684
734.962	33.60258
735.371	33.96204
735.78	33.32348
736.189	33.86413
736.598	33.02455
737.007	33.76222
737.416	32.50562
737.825	32.68889
738.233	31.85479
738.642	33.03266
739.051	31.99115
739.459	32.52359
739.868	31.67445
740.276	32.05114
740.684	31.40223
741.093	31.90825
741.501	31.08535
741.909	31.0692
742.317	30.88201
742.725	30.98526
743.133	30.90017
743.541	30.8378
743.949	30.6677
744.357	30.39322
744.765	30.41453
745.173	29.82355
745.58	30.33525
745.988	29.33695
746.396	30.41787
746.803	29.21459
747.211	29.57439
747.618	28.98918
748.025	28.9822
748.433	29.04808
748.84	29.07319
749.247	28.56211
749.654	28.16433
750.061	28.41245
750.468	28.24582
750.875	28.55446
751.282	27.79334
751.689	28.29382
752.096	27.58178
752.502	28.31527
752.909	27.91578
753.316	28.23645
753.722	27.91275
754.129	27.51559
754.535	27.59764
754.941	27.58895
755.348	27.75326
755.754	27.13862
756.16	28.02657
756.566	27.03216
756.972	27.69707
757.378	26.74825
757.784	27.17786
758.19	27.40509
758.596	27.06859
759.002	27.35497
759.408	26.88543
759.813	27.2303
760.219	26.7084
760.624	27.40737
761.03	26.69475
761.435	26.76621
761.841	25.94502
762.246	26.22902
762.651	26.4007
763.057	25.90369
763.462	27.04241
763.867	26.06875
764.272	27.36447
764.677	26.69955
765.082	27.27524
765.487	26.78184
765.892	26.80155
766.296	26.37634
766.701	26.29047
767.106	26.72376
767.51	25.80629
767.915	26.4391
768.319	25.79523
768.724	25.70354
769.128	26.24488
769.532	25.54083
769.936	26.19686
770.341	25.62814
770.745	26.03045
771.149	25.09724
771.553	25.84942
771.957	25.55372
772.361	26.00328
772.764	25.96496
773.168	25.332
773.572	26.34471
773.976	25.1573
774.379	26.02335
774.783	24.99959
775.186	25.48459
775.59	25.2469
775.993	24.84199
776.396	25.52837
776.8	24.73464
777.203	25.283
777.606	25.33042
778.009	25.35927
778.412	25.77811
778.815	25.24549
779.218	25.74736
779.621	24.42183
780.023	25.70866
780.426	25.62887
780.829	25.40253
781.231	25.44316
781.634	25.0578
782.036	25.96956
782.439	25.50287
782.841	25.34076
783.244	25.48879
783.646	25.13247
784.048	26.01671
784.45	25.09887
784.852	25.75985
785.254	25.28198
785.656	25.30448
786.058	25.77285
786.46	25.0078
786.862	25.52224
787.264	24.90477
787.665	25.35052
788.067	25.19298
788.468	25.23246
788.87	25.42607
789.271	24.84494
789.673	25.70692
790.074	25.13445
790.475	25.25859
790.877	25.92371
791.278	25.35913
791.679	25.35114
792.08	25.29659
792.481	25.38178
792.882	25.77779
793.283	24.91353
793.683	25.37664
794.084	25.17761
794.485	25.23305
794.886	25.20411
795.286	25.23397
795.687	25.7623
796.087	25.02102
796.487	25.45865
796.888	25.33333
797.288	25.02977
797.688	25.29659
798.088	24.89518
798.489	25.18794
798.889	25.2168
799.289	25.50083
799.689	25.60506
800.088	25.06529
800.488	25.22528
800.888	25.39339
801.288	25.02575
801.687	25.99815
802.087	24.95916
802.486	25.50055
802.886	25.70095
803.285	25.29885
803.685	25.95513
804.084	25.77719
804.483	25.63619
804.882	26.28422
805.281	25.04577
805.68	26.19541
806.079	25.33271
806.478	25.88558
806.877	25.78318
807.276	25.15799
807.675	26.01844
808.074	25.72395
808.472	25.2016
808.871	26.19307
809.269	25.50955
809.668	26.16707
810.066	26.16566
810.465	25.96698
810.863	26.36388
811.261	25.67068
811.659	25.98786
812.057	26.02764
812.455	25.9132
812.853	26.26923
813.251	25.25478
813.649	25.8985
814.047	25.92381
814.445	25.67721
814.843	26.00161
815.24	25.6662
815.638	25.76436
816.035	26.36234
816.433	26.07409
816.83	26.17517
817.228	26.51887
817.625	25.79539
818.022	26.71223
818.419	25.92782
818.816	26.15506
819.213	26.52676
819.61	25.93735
820.007	26.54261
820.404	26.48888
820.801	26.6369
821.198	27.28192
821.595	26.76635
821.991	26.92212
822.388	27.82849
822.784	27.23634
823.181	27.86352
823.577	27.87586
823.974	27.79149
824.37	28.00997
824.766	27.6814
825.162	27.74593
825.558	27.61046
825.954	26.81783
826.35	27.63391
826.746	27.81869
827.142	27.45301
827.538	28.1722
827.934	27.70824
828.33	27.71521
828.725	27.63525
829.121	27.58205
829.516	27.45344
829.912	27.4388
830.307	26.87494
830.703	27.13835
831.098	27.0296
831.493	26.80537
831.888	27.29485
832.283	26.36486
832.678	27.00934
833.073	27.42616
833.468	27.017
833.863	27.61023
834.258	28.0553
834.653	27.21795
835.048	27.45642
835.442	27.34254
835.837	27.09069
836.231	27.73351
836.626	27.54994
837.02	27.17219
837.415	27.61982
837.809	26.7402
838.203	26.98706
838.597	27.49702
838.991	26.33647
839.385	27.18876
839.779	27.38024
840.173	27.03083
840.567	27.63133
840.961	27.14965
841.355	27.29425
841.748	27.41408
842.142	27.38782
842.536	27.74122
842.929	28.176
843.323	27.11893
843.716	27.36073
844.109	27.91728
844.503	27.13885
844.896	27.85268
845.289	27.39663
845.682	27.22064
846.075	27.7322
846.468	27.41325
846.861	27.2796
847.254	28.33745
847.647	27.68867
848.04	27.4266
848.432	28.03329
848.825	27.31917
849.217	27.33584
849.61	28.28194
850.002	28.04084
850.395	27.35723
850.787	28.09223
851.179	26.63367
851.572	27.84065
851.964	27.50494
852.356	27.5328
852.748	27.78757
853.14	28.44498
853.532	27.09813
853.924	27.53392
854.315	28.20628
854.707	27.5582
855.099	27.26554
855.491	27.48063
855.882	27.17891
856.274	28.67468
856.665	27.42296
857.056	26.67976
857.448	27.90657
857.839	27.57473
858.23	26.84747
858.621	27.68336
859.012	27.34882
859.403	27.22514
859.794	28.35477
860.185	27.88842
860.576	27.92116
860.967	27.5238
861.358	27.06709
861.748	26.91763
862.139	27.08246
862.529	27.89017
862.92	27.26772
863.31	28.33261
863.701	26.57347
864.091	26.84618
864.481	28.12756
864.872	27.33106
865.262	27.89336
865.652	27.32501
866.042	27.65008
866.432	27.4133
866.822	27.53795
867.211	27.62583
867.601	27.45543
867.991	28.14508
868.381	27.76145
868.77	27.09429
869.16	27.29479
869.549	27.56711
869.939	26.6875
870.328	27.61978
870.717	27.81947
871.106	27.5707
871.496	27.79102
871.885	27.38299
872.274	26.86812
872.663	27.92853
873.052	27.9918
873.441	27.22812
873.829	27.49225
874.218	27.18088
874.607	26.88566
874.996	27.30532
875.384	27.45855
875.773	26.3859
876.161	27.18395
876.549	27.11226
876.938	26.78168
877.326	27.60913
877.714	27.79187
878.102	26.59751
878.491	26.94099
878.879	27.30907
879.267	26.71599
879.655	27.12944
880.042	27.65705
880.43	27.49016
880.818	27.61286
881.206	28.31454
881.593	27.80919
881.981	27.70886
882.368	28.35813
882.756	28.24478
883.143	27.7028
883.53	27.893
883.918	27.6564
884.305	27.30015
884.692	27.67632
885.079	27.74968
885.466	27.29919
885.853	26.83925
886.24	27.57007
886.627	27.20271
887.014	27.92046
887.4	27.47876
887.787	27.10756
888.174	26.69139
888.56	27.15478
888.947	26.91115
889.333	26.56424
889.719	27.75766
890.106	27.02505
890.492	26.264
890.878	26.8137
891.264	27.3968
891.65	26.38484
892.036	26.96982
892.422	26.72948
892.808	26.19011
893.194	26.09993
893.58	26.88181
893.965	26.49896
894.351	26.25511
894.736	26.62034
895.122	26.81901
895.507	26.65978
895.893	26.53394
896.278	26.98163
896.663	26.82983
897.049	26.68692
897.434	27.14513
897.819	26.74281
898.204	27.09246
898.589	27.05566
898.974	26.98239
899.359	26.48731
899.743	27.183
900.128	27.37234
900.513	26.31774
900.897	27.23899
901.282	26.86906
901.667	25.96388
902.051	26.53656
902.435	26.84668
902.82	25.8798
903.204	26.20692
903.588	26.8183
903.972	26.58869
904.356	26.36785
904.74	26.68254
905.124	27.04778
905.508	26.69455
905.892	26.72696
906.276	26.49205
906.659	26.7805
907.043	26.69661
907.427	27.42742
907.81	26.71709
908.194	26.38031
908.577	27.34395
908.96	26.65316
909.344	26.73987
909.727	26.16725
910.11	26.89343
910.493	25.86961
910.876	25.90056
911.259	26.01855
911.642	26.29558
912.025	25.34829
912.408	25.78174
912.79	26.15269
913.173	25.62554
913.556	25.14898
913.938	26.4125
914.321	26.03819
914.703	25.13308
915.086	26.17568
915.468	26.69125
915.85	26.08145
916.232	26.4288
916.614	26.7884
916.996	26.69071
917.378	25.7347
917.76	26.7452
918.142	27.02906
918.524	26.02526
918.906	26.1315
919.288	26.40349
919.669	25.87664
920.051	26.22027
920.432	26.38478
920.814	26.44342
921.195	25.73279
921.577	26.17833
921.958	26.36619
922.339	26.33204
922.72	26.04146
923.101	25.61768
923.482	25.3731
923.863	25.03911
924.244	25.76835
924.625	25.89803
925.006	26.65616
925.387	26.51842
925.767	25.4512
926.148	25.8866
926.528	25.18792
926.909	26.11247
927.289	25.20259
927.67	24.82284
928.05	25.16364
928.43	25.88829
928.81	26.20404
929.191	24.57094
929.571	25.37466
929.951	25.65067
930.331	26.16463
930.71	25.5483
931.09	24.6553
931.47	25.21064
931.85	25.33461
932.229	24.42819
932.609	24.89546
932.988	24.23109
933.368	24.6968
933.747	24.85313
934.127	25.72762
934.506	25.00402
934.885	24.78578
935.264	24.41113
935.643	25.38866
936.022	24.58708
936.401	24.76164
936.78	26.46626
937.159	25.03794
937.538	24.38865
937.916	25.08219
938.295	25.09678
938.674	24.00974
939.052	23.66001
939.431	24.35342
939.809	23.2097
940.187	25.14337
940.566	23.67914
940.944	24.99933
941.322	24.59756
941.7	22.08692
942.078	24.36743
942.456	24.2689
942.834	24.47222
943.212	23.66499
943.59	22.75778
943.968	24.51615
944.345	23.58944
944.723	23.48486
945.1	23.16843
945.478	23.77297
945.855	24.20743
946.233	22.28324
946.61	23.16763
946.987	22.45349
947.365	21.98513
947.742	24.12678
948.119	24.81724
948.496	22.97648
948.873	22.93599
949.25	23.06393
949.626	23.05741
950.003	22.39151
950.38	24.06217
950.756	24.83996
951.133	22.30113
951.51	23.38191
951.886	21.60482
952.262	23.62745
952.639	23.07663
953.015	23.44666
953.391	24.10003
953.767	23.11169
954.143	20.62632
954.519	22.4054
954.895	23.0084
955.271	21.3462
955.647	22.83018
956.023	22.41944
956.399	21.07603
956.774	22.81975
957.15	23.91792
957.525	20.92409
957.901	22.30622
958.276	22.10804
958.652	21.12243
959.027	21.61297
959.402	22.79313
959.777	22.96905
960.152	21.2787
960.527	20.94997
960.902	21.5821
961.277	22.10163
961.652	21.27385
962.027	22.09446
962.402	22.6046
962.776	22.42463
963.151	21.86752
963.525	21.71848
963.9	19.68423
964.274	20.94057
964.649	21.72882
965.023	20.6912
965.397	23.2254
965.771	20.26203
966.146	22.87496
966.52	21.04494
966.894	22.83835
967.268	21.05743
967.641	21.86983
968.015	22.00113
968.389	23.83844
968.763	22.45265
969.136	20.21865
969.51	21.60351
969.883	21.98912
970.257	21.2281
970.63	21.01299
971.003	20.80812
971.377	23.29963
971.75	22.48454
972.123	21.48175
972.496	21.70578
972.869	21.55585
973.242	22.23318
973.615	21.25271
973.988	21.87049
974.36	21.64201
974.733	21.60157
975.106	22.4765
975.478	21.65138
975.851	20.78556
976.223	21.27101
976.596	20.98995
976.968	21.75363
977.34	22.89309
977.712	20.64667
978.085	21.26498
978.457	21.86215
978.829	22.87516
979.201	22.74699
979.573	21.61968
979.944	22.1314
980.316	20.7956
980.688	22.01223
981.059	19.81612
981.431	21.86605
981.803	21.3653
982.174	22.07568
982.545	20.00545
982.917	21.45094
983.288	21.37335
983.659	20.89505
984.03	20.65151
984.401	19.26119
984.772	21.81868
985.143	20.85437
985.514	19.20435
985.885	20.84109
986.256	20.79812
986.627	20.91986
986.997	19.23169
987.368	21.55938
987.738	21.08438
988.109	20.78906
988.479	20.19401
988.85	20.74082
989.22	22.03094
989.59	20.60953
989.96	21.32276
990.33	20.83137
990.7	22.18703
991.07	20.49137
991.44	20.17339
991.81	21.12021
992.18	21.18723
992.549	20.86905
992.919	20.40511
993.289	20.51507
993.658	19.78546
994.028	20.91289
994.397	20.96049
994.766	21.40589
995.136	20.81766
995.505	20.19564
995.874	20.95833
996.243	18.59176
996.612	20.18865
996.981	23.46851
997.35	18.0639
997.719	21.56587
998.088	18.24923
998.456	19.21148
998.825	19.55376
999.194	19.93882
999.562	17.84424
999.931	23.40104
1000.299	17.11747
1000.667	16.32802
1001.036	20.1987
1001.404	20.65362
1001.772	16.34062
1002.14	20.00492
1002.508	20.47429
1002.876	17.19527
1003.244	19.14466
1003.612	14.8852
1003.98	15.33543
1004.347	16.24072
1004.715	19.24528
1005.083	16.89364
1005.45	16.67417
1005.818	13.1007
1006.185	15.52411
1006.552	15.83411
1006.92	18.05924
1007.287	18.27634
1007.654	14.29862
1008.021	18.69094
1008.388	15.85695
1008.755	18.17879
1009.122	15.27448
1009.489	17.92872
1009.856	16.75756
1010.222	16.18446
1010.589	18.85622
1010.956	20.14151
1011.322	16.2651
1011.689	20.86934
1012.055	14.76354
1012.421	11.82194
1012.788	18.71287
1013.154	15.44105
1013.52	20.13125
1013.886	18.19708
1014.252	12.29864
1014.618	13.80402
1014.984	11.23571
1015.35	13.47112
1015.716	17.59462
1016.081	12.36653
1016.447	19.92954
1016.813	15.41489
1017.178	10.7418
1017.544	12.78926
1017.909	15.73684
1018.274	11.09449
1018.64	12.51382
1019.005	14.7584
1019.37	13.12686
1019.735	15.76261
1020.1	11.36759
1020.465	13.77115
1020.83	13.9308
1021.195	3.96459
1021.56	9.66145
1021.924	13.48207
1022.289	16.64938
1022.654	5.32989
1023.018	14.44378
1023.383	12.00023
1023.747	17.00567
1024.111	11.34042
1024.476	11.2857
1024.84	15.02809
1025.204	7.6149
1025.568	3.33611
1025.932	10.93055
1026.296	10.83099
1026.66	10.62484
1027.024	8.76781
1027.387	9.63698
1027.751	6.51624
1028.115	2.98241
1028.478	5.31215
1028.842	5.80933
1029.205	10.23689
1029.569	10.53974
1029.932	1.86762
1030.295	10.08631
1030.659	10.84101
1031.022	1.03281
1031.385	0
1031.748	8.12784
1032.111	4.70868
1032.474	2.0445
1032.836	-1.75319
1033.199	6.60716
1033.562	3.24275
1033.924	15.7381
1034.287	7.13756
1034.65	-6.26428
1035.012	4.33303
1035.374	-0.28552
1035.737	-1.95958
1036.099	-8.71676
1036.461	-1.63835
1036.823	-1.86215
1037.185	5.75998
1037.547	3.44619
1037.909	-2.54616
1038.271	8.30017
1038.633	-16.77219
1038.995	2.98832
1039.356	-11.02749
1039.718	0
1040.08	1.06703
1040.441	7.60093
1040.803	6.41196
1041.164	-10.06588
1041.525	1.85777
1041.886	0.38295
1042.248	-6.63705
1042.609	12.16465
1042.97	6.86017
1043.331	7.90686
1043.692	-8.91678
1044.053	-16.81886
1044.413	-18.25552
1044.774	10.66718
1045.135	-3.2696
1045.495	-6.33192
1045.856	-13.88327
1046.216	-8.22507
1046.577	10.74916
1046.937	3.52271
1047.298	-17.46316
